2.767419731410150890e-04
2.261698529121738098e-03
9.202142494269597434e-03
2.537792564891438313e-02
5.447827401109558293e-02
9.845190725809753463e-02
1.571227320997427013e-01
2.283145812684841403e-01
3.082802961858235324e-01
3.922789833212985133e-01
4.751966337030606446e-01
5.521412920449786377e-01
6.189542670793080070e-01
6.725848551521742547e-01
7.112995086368457676e-01
7.347279401987323322e-01
7.437639733228800232e-01
7.403404181125853301e-01
7.271074655713672952e-01
7.070624195164925130e-01
6.831869243240272782e-01
6.581379988678149884e-01
6.340213218920870419e-01
6.122672493247062198e-01
5.936220319086880082e-01
5.782418680700910363e-01
5.658523357560557576e-01
5.559298737776020571e-01
5.478737511056639420e-01
5.411490975799491121e-01
5.353807754282355891e-01
5.303799859692894803e-01
5.261074806978530694e-01
5.226003852726327503e-01
5.198901820149488540e-01
5.179270141494382029e-01
5.165249646977808640e-01
5.153511892814367501e-01
5.139708485551955919e-01
5.119309820084845253e-01
5.088505517756588548e-01
5.044930119384055667e-01
4.988148352247419037e-01
4.919834028971038498e-01
4.843481633264667963e-01
4.763604244766421747e-01
4.684646095898941098e-01
4.609954157137106101e-01
4.541025568250278699e-01
4.477125444637478635e-01
4.415396466849124124e-01
4.351544753387249775e-01
4.280967118053691234e-01
4.199993626719000783e-01
4.106943811044797554e-01
4.002834655247059503e-01
3.891611800718783876e-01
3.779745153089421050e-01
3.675144673429661113e-01
3.585600434138005443e-01
3.517141883432086669e-01
3.472693123979426755e-01
3.451267421022510273e-01
3.447891264338279749e-01
3.454380264096350572e-01
3.460840955951332010e-01
3.457510945243119638e-01
3.436516308115518115e-01
3.393268873562826915e-01
3.327323685056929881e-01
3.242496001323916799e-01
3.146097890358203752e-01
3.047426013771684650e-01
2.955892677101760180e-01
2.879231779820946580e-01
2.822089242621821370e-01
2.785205414840017379e-01
2.765379389275867128e-01
2.756275774006994306e-01
2.749839762593757619e-01
2.737917927364864612e-01
2.713764880686356795e-01
2.673241536243036176e-01
2.615501888073813452e-01
2.542951606935395237e-01
2.460457483848156324e-01
2.374079101974140293e-01
2.289700642846558276e-01
2.211819785942427397e-01
2.142658949470283292e-01
2.081833210960578884e-01
2.026755412861767358e-01
1.973640368802022371e-01
1.918719928081193127e-01
1.859338323507743473e-01
1.794782255245832570e-01
1.726733939221689607e-01
1.659158488131821096e-01
1.597535439306237981e-01
1.547624605097024375e-01
1.514125704916824411e-01
1.499525014859343086e-01
1.503293227673296872e-01
1.521602188807384126e-01
1.547760086458923878e-01
1.573366728876456622e-01
1.589864126984834869e-01
1.590064089246611412e-01
1.569394625715403446e-01
1.526719369599603970e-01
1.464551439852915804e-01
1.388520635365665390e-01
1.306184568350035047e-01
1.225517468872177052e-01
1.153438361675794832e-01
1.094603637522431200e-01
1.050646679281641710e-01
1.020085547579170498e-01
9.989622150675371570e-02
9.819857777851738467e-02
9.638381784816653364e-02
9.403946575261290519e-02
9.097071746762397382e-02
8.725615086014391897e-02
8.323749126984068825e-02
7.943750357465971523e-02
7.642938023500277234e-02
7.469467553379692537e-02
7.450107959386197132e-02
7.582313605227930520e-02
7.832792000379606989e-02
8.143771063217897233e-02
8.445407648227587494e-02
8.670682539187068993e-02
8.769249739611871541e-02
8.717939989000875189e-02
8.526241576928958454e-02
8.234912530706968437e-02
7.907090325446415602e-02
7.614079508304201493e-02
7.419594055146368217e-02
7.365618490026912268e-02
7.461945746388830292e-02
7.681478430033626681e-02
7.963471283106304810e-02
8.224772535002433660e-02
8.376096576896563395e-02
8.339340828035157749e-02
8.062781180204257880e-02
7.531581568015598138e-02
6.770848607095857064e-02
5.839560158719012822e-02
4.816881205437610614e-02
3.784970206238079393e-02
2.812538999238467161e-02
1.942014821793106721e-02
1.182316582936103651e-02
5.092607488078460323e-03
-1.259805653185426880e-03
-7.830129081570122093e-03
-1.517165861230466983e-02
-2.366562107187447986e-02
-3.342908447288746310e-02
-4.427271043027482256e-02
-5.572482285870877100e-02
-6.712293772425141636e-02
-7.774700607298172528e-02
-8.695986902280437858e-02
-9.433062594555395586e-02
-9.972279558002369870e-02
-1.033236846799535369e-01
-1.055974769981971872e-01
-1.071728129755969705e-01
-1.087003962908628940e-01
-1.107172783772417402e-01
-1.135397523255384650e-01
-1.171995700943425506e-01
-1.214419200370818602e-01
-1.257938514272944897e-01
-1.296855240674742449e-01
-1.325894218051367757e-01
-1.341461170645104062e-01
-1.342543390767697298e-01
-1.331059440738640853e-01
-1.311524195298051365e-01
-1.290084221420592925e-01
-1.273197976345699922e-01
-1.266308540450159226e-01
-1.272749179585248303e-01
-1.293026295032612127e-01
-1.324662554822696459e-01
-1.362736057558904257e-01
-1.401004803017453781e-01
-1.433293347006568963e-01
-1.454808305701498217e-01
-1.463162627550179395e-01
-1.458929761340946596e-01
-1.445537357892777430e-01
-1.428464148768266717e-01
-1.413973078502392677e-01
-1.407751751949468388e-01
-1.413744442870159268e-01
-1.433317003984034832e-01
-1.464914391689786655e-01
-1.504393076085496217e-01
-1.546001989929146614e-01
-1.583722402726553957e-01
-1.612614086165524707e-01
-1.629930556211746928e-01
-1.635831313899019646e-01
-1.633459943162335060e-01
-1.628240486929357356e-01
-1.626550794483324347e-01
-1.634175461482235414e-01
-1.654935471641858225e-01
-1.689733428604435206e-01
-1.736183186115628496e-01
-1.788996899309256428e-01
-1.841125541125676612e-01
-1.885351893242321886e-01
-1.915894197767495921e-01
-1.929648693272532911e-01
-1.926853573966046118e-01
-1.911061506053854664e-01
-1.888383378404042412e-01
-1.866148272316024703e-01
-1.851347881384810268e-01
-1.849270469112232751e-01
-1.862549319076237386e-01
-1.890714782198439359e-01
-1.930390898689067214e-01
-1.976210425937954263e-01
-2.022207540678397641e-01
-2.063239586533265058e-01
-2.096053097544051391e-01
-2.119787560638156376e-01
-2.135810937032681378e-01
-2.146814817391347885e-01
-2.155296476110452053e-01
-2.161860039428803726e-01
-2.163843915048689337e-01
-2.154586244632033798e-01
-2.123412830751610914e-01
-2.056329681108093610e-01
-1.937345078526662989e-01
-1.750192850888054874e-01
-1.480076909020479614e-01
-1.115103336086572389e-01
-6.472781236509075886e-02
-7.314875660096827222e-03
6.057480161982244787e-02
1.382497723874928919e-01
2.244417352510594266e-01
3.172690567144014762e-01
4.142209697336152741e-01
5.121982695804726538e-01
6.076428593032772163e-01
6.967512382140260696e-01
7.757298883492993458e-01
8.410466970804948428e-01
8.896463611268926597e-01
9.191093708395450257e-01
9.277511849774219277e-01
9.146803640626309795e-01
8.798409761739479640e-01
8.240474473242611619e-01
7.489972922668265420e-01
6.572400496095748279e-01
5.520908845718645042e-01
4.374844019949975515e-01
3.177614644653270481e-01
1.973897800826980298e-01
8.064260286367941344e-02
-2.872048281860616753e-02
-1.277257920104076239e-01
-2.143774275381928607e-01
-2.877422541122700017e-01
-3.479065737345756193e-01
-3.958069008143101919e-01
-4.329741813591768129e-01
-4.612478216120066699e-01
-4.825042109335496154e-01
-4.984302548008579525e-01
-5.103689997045961491e-01
-5.192578677681252142e-01
-5.256605058202887815e-01
-5.298688114257388282e-01
-5.320380638854743660e-01
-5.323225015119392722e-01
-5.309849865570769323e-01
-5.284518542349099235e-01
-5.252935566953632618e-01
-5.221417146904080431e-01
-5.195778328882632024e-01
-5.180278453134689043e-01
-5.176827069593546993e-01
-5.184604440321983754e-01
-5.200238797067986418e-01
-5.218564342765171782e-01
-5.233797692229688048e-01
-5.240839913717887377e-01
-5.236432017759703461e-01
-5.219981627555853043e-01
-5.193872964004352388e-01
-5.163072664463713712e-01
-5.134046416821322900e-01
-5.113287371317304375e-01
-5.105857299848665098e-01
-5.114224897979384732e-01
-5.137565382622337751e-01
-5.171680518993411191e-01
-5.209666744737498911e-01
-5.243261126269226358e-01
-5.264531021573299885e-01
-5.267471225894758691e-01
-5.249182638987127669e-01
-5.210426499577992532e-01
-5.155402421116798140e-01
-5.090771172115262644e-01
-5.024220994178072441e-01
-4.962981186287991897e-01
-4.912546862622299559e-01
-4.875740607999977105e-01
-4.852271119696989765e-01
-4.838962323384979336e-01
-4.830634404207165278e-01
-4.821389404016252489e-01
-4.805978052284415880e-01
-4.780979742811720112e-01
-4.745588923219845046e-01
-4.701813021713058816e-01
-4.653968652714297050e-01
-4.607593390903173547e-01
-4.568109458679187607e-01
-4.539583870716418779e-01
-4.523787116693220312e-01
-4.519703573387613971e-01
-4.523682292541361671e-01
-4.530274415848268288e-01
-4.533515666810009059e-01
-4.528278972946616077e-01
-4.511407900843144581e-01
-4.482450701671507054e-01
-4.443830264883470993e-01
-4.400328162713199043e-01
-4.357969000539002047e-01
-4.322640830868693107e-01
-4.298824350290810226e-01
-4.288633260875453490e-01
-4.291265439972697382e-01
-4.303016219482604376e-01
-4.317965315077870181e-01
-4.329204100345926398e-01
-4.330255324351422463e-01
-4.316356053776325141e-01
-4.285418574618856113e-01
-4.238518331134998873e-01
-4.179719197968495004e-01
-4.115200253573499389e-01
-4.051950047414638045e-01
-3.996411930654202860e-01
-3.953331497577626252e-01
-3.924920580841411710e-01
-3.910473213133298098e-01
-3.906602373845235454e-01
-3.908106909801005169e-01
-3.909225902457069135e-01
-3.904942579801529701e-01
-3.892092465698045456e-01
-3.870094448972810075e-01
-3.841077183297189612e-01
-3.809275367114409172e-01
-3.779873493362046477e-01
-3.757667821175732503e-01
-3.745880913081662267e-01
-3.745326729356497908e-01
-3.754046236086506227e-01
-3.767545596216430037e-01
-3.779690333232565425e-01
-3.784060440429432570e-01
-3.775380810843133594e-01
-3.750695326041991184e-01
-3.710101572337515807e-01
-3.656890946012695820e-01
-3.596957549453956848e-01
-3.537570397322064575e-01
-3.485882011835925165e-01
-3.447560091657249637e-01
-3.425741586499601588e-01
-3.420411707348313679e-01
-3.428367772216207032e-01
-3.443881683746928268e-01
-3.459920586244931706e-01
-3.469587612686307332e-01
-3.467466110885327191e-01
-3.450655202986760428e-01
-3.419312052412329384e-01
-3.376517652984358242e-01
-3.327456283935096848e-01
-3.278190241069001698e-01
-3.234409164678505033e-01
-3.200393520688120108e-01
-3.178295459491393138e-01
-3.167839718917668246e-01
-3.166560709712839539e-01
-3.170540880406551021e-01
-3.175411214914402591e-01
-3.177347486707073343e-01
-3.173906336076204870e-01
-3.164583951927208427e-01
-3.150918976897317259e-01
-3.136018141775149259e-01
-3.123626383072888868e-01
-3.117055384960904507e-01
-3.118239959429860986e-01
-3.127045129554532621e-01
-3.140947187423222542e-01
-3.155265073603399917e-01
-3.163979839740225786e-01
-3.160954168104192497e-01
-3.141256196986242366e-01
-3.102313877645129225e-01
-3.044691073631859424e-01
-2.972288505381870949e-01
-2.891813020165198700e-01
-2.811582535621634515e-01
-2.739996718205644499e-01
-2.684051804458058021e-01
-2.648134039738250789e-01
-2.633226860130279401e-01
-2.636720916158700745e-01
-2.652979399904054625e-01
-2.674543576260209332e-01
-2.693640716991254069e-01
-2.703658709449762720e-01
-2.700364048204033085e-01
-2.682673299721551330e-01
-2.652750997902839081e-01
-2.615344653897368477e-01
-2.576559301070687202e-01
-2.542436222620381714e-01
-2.517641332928534648e-01
-2.504442501419857359e-01
-2.502153601534436445e-01
-2.507246135628939387e-01
-2.514156155145378935e-01
-2.516554718328598006e-01
-2.508739311656426607e-01
-2.486873426493168837e-01
-2.449874516468629193e-01
-2.399718657032212099e-01
-2.340992477270238958e-01
-2.279795395530816449e-01
-2.222346557455274207e-01
-2.173666002981590739e-01
-2.136558050034418066e-01
-2.111051037480895232e-01
-2.094455398741261465e-01
-2.082090321335516581e-01
-2.068482748452504516e-01
-2.048689364562467918e-01
-2.019436027941281242e-01
-1.979872706301949170e-01
-1.931780319298533610e-01
-1.879121503850053609e-01
-1.827024797377155563e-01
-1.780523426230754269e-01
-1.743409129018560211e-01
-1.717398546566821504e-01
-1.701688535154812498e-01
-1.693015018232607583e-01
-1.686300571326928566e-01
-1.675751716920533818e-01
-1.656092166310989544e-01
-1.623664506719625367e-01
-1.577243007814278231e-01
-1.518394206007226133e-01
-1.451212462726870489e-01
-1.381431492252670201e-01
-1.315162706640045920e-01
-1.257617215451449499e-01
-1.212078771488160761e-01
-1.179261950934642478e-01
-1.157169223017965320e-01
-1.141542716287030773e-01
-1.126855460761859856e-01
-1.107601073356137000e-01
-1.079565923928532678e-01
-1.040840224158789962e-01
-9.924085679429638096e-02
-9.381434839940137882e-02
-8.840848233921480559e-02
-8.371433327603991503e-02
-8.035949505433691298e-02
-7.877352845995665154e-02
-7.909205583769429726e-02
-8.111388306046796171e-02
-8.432556678698022168e-02
-8.799592074892760574e-02
-9.131869654116687995e-02
-9.356779007321602837e-02
-9.423444068564934550e-02
-9.312524397550890620e-02
-9.039993597939065262e-02
-8.653303944179323304e-02
-8.220693952583223163e-02
-7.816812501373802957e-02
-7.508284457404922063e-02
-7.341557354879722774e-02
-7.334469009432487141e-02
-7.473421796100676584e-02
-7.717681630011119509e-02
-8.009892159110154619e-02
-8.289453939548352412e-02
-8.505166141596330609e-02
-8.625076023184773122e-02
-8.642275592117730498e-02
-8.575018510692564155e-02
-8.460543573668852235e-02
-8.344470097054021429e-02
-8.269010077489900856e-02
-8.262595324161579879e-02
-8.332507005517320042e-02
-8.462117777987021583e-02
-8.614083345137613090e-02
-8.739059784557334787e-02
-8.787517147080570190e-02
-8.721538988471921883e-02
-8.524304531385971939e-02
-8.205701784619166828e-02
-7.802479975171736082e-02
-7.372028590433774009e-02
-6.980843082227891627e-02
-6.690705380989755979e-02
-6.546010623125191052e-02
-6.564410919776812736e-02
-6.732113173911979942e-02
-7.005311685698778490e-02
-7.318377615830118366e-02
-7.597145617789025085e-02
-7.773780147090025849e-02
-7.799961301808022718e-02
-7.656453288071961294e-02
-7.357229184626311314e-02
-6.946398945035479888e-02
-6.488322113561727222e-02
-6.053843666664613515e-02
-5.706054873963649354e-02
-5.487854312040773425e-02
-5.413164142104648358e-02
-5.464134650212116445e-02
-5.595862293488469003e-02
-5.747526572689155150e-02
-5.856578649137911957e-02
-5.872451287572783007e-02
-5.767389868239902045e-02
-5.542513864160629466e-02
-5.227384397789623660e-02
-4.872844325794609827e-02
-4.539244419987995688e-02
-4.283265244959082174e-02
-4.145812214037580129e-02
-4.142798281055531939e-02
-4.261059781047349393e-02
-4.461171606693831865e-02
-4.686626770550018223e-02
-4.876656001069196861e-02
-4.979406554466953017e-02
-4.962978976812692372e-02
-4.822401638402500079e-02
-4.580607167531207391e-02
-4.282548583983684931e-02
-3.984045895901665302e-02
-3.738805438904783951e-02
-3.586872067561979599e-02
-3.546190357727252440e-02
-3.608243386757393339e-02
-3.739215849999089764e-02
-3.887314778211615335e-02
-3.994485342136978867e-02
-4.009172138629030907e-02
-3.897326377591114888e-02
-3.650161309504689616e-02
-3.287101924866003139e-02
-2.852156208925209560e-02
-2.404008295336808668e-02
-2.003000057626082644e-02
-1.698718851040555838e-02
-1.520321893509942075e-02
-1.470633614604565514e-02
-1.525396496277146678e-02
-1.638777942372292296e-02
-1.754131313990313357e-02
-1.816979411095169181e-02
-1.787023712982616780e-02
-1.646977975028848795e-02
-1.406513841927719589e-02
-1.099862858572281908e-02
-7.773329016578696578e-03
-4.934886782232318289e-03
-2.955504349124983554e-03
-2.143150994993702797e-03
-2.584951218566292064e-03
-4.131834755489298752e-03
-6.431629929245518545e-03
-9.005889474933047312e-03
-1.135034118162684541e-02
-1.303438606191633167e-02
-1.378315591993779614e-02
-1.353153538917092197e-02
-1.243477164740631156e-02
-1.082456333100973236e-02
-9.120905958181674961e-03
-7.727404395703400819e-03
-6.936173080642440113e-03
-6.856404594621645296e-03
-7.378149322873996281e-03
-8.186410203873216787e-03
-8.828999065384129236e-03
-8.819251588670964578e-03
-7.744812808515691253e-03
-5.361632457967104200e-03
-1.659952560972947043e-03
3.115902186002288913e-03
8.510628967602839115e-03
1.395627800721099473e-02
1.889314496330307333e-02
2.287965109329955296e-02
2.567362319979736573e-02
2.727779469099934212e-02
2.794020584115719519e-02
2.810147710915144800e-02
2.829691394503191723e-02
2.903932426092994956e-02
3.071045976406544878e-02
3.347999877019500886e-02
3.726832209445331279e-02
4.176802833539615400e-02
4.652272145116430335e-02
5.103904526420186688e-02
5.490079934856637034e-02
5.786336449198183768e-02
5.991499148623304072e-02
6.128895558963910056e-02
6.241289628193003730e-02
6.380212301492355076e-02
6.592618776531640468e-02
6.908289946284192073e-02
7.330309157062123160e-02
7.830194901586083611e-02
8.349479522721457714e-02
8.808616147403203200e-02
9.121438799732917158e-02
9.211420781497914323e-02
9.026258394009412100e-02
8.548699510623646025e-02
7.802024299992403600e-02
6.848393095083481208e-02
5.779479948034236397e-02
4.701341717338029108e-02
3.717158083282632447e-02
2.911137576787652115e-02
2.335779969329053810e-02
2.004744564670065884e-02
1.893503731503967669e-02
1.947705038475333952e-02
2.096499555968162412e-02
2.267442546145354010e-02
2.400468159217921532e-02
2.458929246414247316e-02
2.435304191333385535e-02
2.349699820382265131e-02
2.241628499995882567e-02
2.157834384558108415e-02
2.139266457633552665e-02
2.209587630126357699e-02
2.367754376506375769e-02
2.587238391148969155e-02
2.822456117619624033e-02
3.020068427205339218e-02
3.131544497776528324e-02
3.124220056683948629e-02
2.989311322648221039e-02
2.745344497406883300e-02
2.435262298308616888e-02
2.117117253236340188e-02
1.850918152162027430e-02
1.685336483571086078e-02
1.647145753380425612e-02
1.735298936440850606e-02
1.921246657626669158e-02
2.155917724709097844e-02
2.381437805815962011e-02
2.544113178629193311e-02
2.605632695473586447e-02
2.550904524967222836e-02
2.391545000108837374e-02
2.163904462551351215e-02
1.921430268172112307e-02
1.723140628714507280e-02
1.621291097189112018e-02
1.650796625534431752e-02
1.821895015298345341e-02
2.117603830982089930e-02
2.497308909408322078e-02
2.905820798751196712e-02
3.285184531926108042e-02
3.586247097061884270e-02
3.778127196116331382e-02
3.854517792521632014e-02
3.835220424134109379e-02
3.761512942692272349e-02
3.686277445744021858e-02
3.661835858969429008e-02
3.728257759997864740e-02
3.904005448946062246e-02
4.180881500158416947e-02
4.525284425842507341e-02
4.885954095125533136e-02
5.205783588249113247e-02
5.434369850037551464e-02
5.538916532547554644e-02
5.511977929714510782e-02
5.374311650990046957e-02
5.171150994315268368e-02
4.962163415733947258e-02
4.808018688648166977e-02
4.757219005152366759e-02
4.835446531799419273e-02
5.038551188821477345e-02
5.330817371562324852e-02
5.650202619950529803e-02
5.920004703339133700e-02
6.064157492541240313e-02
6.023370086051444555e-02
5.770263283603237897e-02
5.321389688491026670e-02
4.743141699668047134e-02
4.149322917434321301e-02
3.690708119706755108e-02
3.538910260849907619e-02
3.866943318340678587e-02
4.828840461215055252e-02
6.542394850000052275e-02
9.080085438215905469e-02
1.247083082543775645e-01
1.671133751662597922e-01
2.178331487390045562e-01
2.767178022891527700e-01
3.437878051432657345e-01
4.192580799356910859e-01
5.033828638587870552e-01
5.960972166923459437e-01
6.965527021902127025e-01
8.027746244288481714e-01
9.116240054025107620e-01
1.019045325943819469e+00
1.120454298682326932e+00
1.211147248260492360e+00
1.286678156057495803e+00
1.343178212637581304e+00
1.377603156835442322e+00
1.387900965141846799e+00
1.373093289432647079e+00
1.333270817098677341e+00
1.269521462551589819e+00
1.183821660014198862e+00
1.078911807307553650e+00
9.581581217983693444e-01
8.253977419352894751e-01
6.847762634329934706e-01
5.405921014749106579e-01
3.971482453825128656e-01
2.585994757260164367e-01
1.287889313031750638e-01
1.108437806087229048e-02
-9.177140130422770103e-02
-1.777919999064279388e-01
-2.458560330642352854e-01
-2.957749379799642364e-01
-3.282988591138636947e-01
-3.450531749230078549e-01
-3.484090951684110649e-01
-3.412900457487932360e-01
-3.269180731679512397e-01
-3.085226842085402876e-01
-2.890541676246208280e-01
-2.709454340372433045e-01
-2.559489104120466485e-01
-2.450585691647637343e-01
-2.385252032746248696e-01
-2.359672726257474318e-01
-2.365570740007720552e-01
-2.392409436249861299e-01
-2.429533076224070220e-01
-2.467980830226195743e-01
-2.501731830065902495e-01
-2.528139575307525866e-01
-2.547518031326858057e-01
-2.562135653125071078e-01
-2.575004152616598430e-01
-2.588741984374346994e-01
-2.604650792574886853e-01
-2.622177855053239859e-01
-2.638955760653107219e-01
-2.651409990772258252e-01
-2.655706769298634140e-01
-2.648765379121637564e-01
-2.629131883995003416e-01
-2.597549059988695785e-01
-2.557019438954334922e-01
-2.512256297458975163e-01
-2.468679023917348669e-01
-2.431271140638497363e-01
-2.403576056933994232e-01
-2.386975108335440132e-01
-2.380353291824887640e-01
-2.380285188642795036e-01
-2.381759673234705166e-01
-2.379250216708007071e-01
-2.367851025020917821e-01
-2.344280482583324665e-01
-2.307617236734004762e-01
-2.259566819544892025e-01
-2.204075408164519190e-01
-2.146368329638656536e-01
-2.091742933861248654e-01
-2.044426352324912322e-01
-2.006648993705249517e-01
-1.978078151390912365e-01
-1.955831129285082459e-01
-1.935161388862007559e-01
-1.910645948404696426e-01
-1.877543546282472720e-01
-1.833003733055588724e-01
-1.776890329870035035e-01
-1.712030093822360377e-01
-1.643759340237702093e-01
-1.578832283912282031e-01
-1.523990274286197155e-01
-1.484575382250877262e-01
-1.463444637635635259e-01
-1.460296924801260388e-01
-1.471556085315396945e-01
-1.490952668662929026e-01
-1.510714927042997313e-01
-1.523052527839815207e-01
-1.521598824436813657e-01
-1.502584075022880827e-01
-1.465561175175210118e-01
-1.413478489460457399e-01
-1.352016037130256421e-01
-1.288371985248527030e-01
-1.229826450370091195e-01
-1.182366219055524525e-01
-1.149576551182722173e-01
-1.131996937296498446e-01
-1.127137561186837972e-01
-1.130199798485934243e-01
-1.135277577215143135e-01
-1.136688906890354761e-01
-1.130180317297093118e-01
-1.113834087869943201e-01
-1.088462269586937675e-01
-1.057302509097968607e-01
-1.025083717257364996e-01
-9.967888910442805617e-02
-9.764504078286811994e-02
-9.661688471460366801e-02
-9.655028001140104899e-02
-9.714156695121407836e-02
-9.788764701572345850e-02
-9.819775986052876882e-02
-9.752535100925958933e-02
-9.548805437526837470e-02
-9.195443804245323483e-02
-8.708232145269795277e-02
-8.129555723738474127e-02
-7.520027154508883427e-02
-6.946273562959397185e-02
-6.468094659353496034e-02
-6.127471077774121477e-02
-5.940683507631961541e-02
-5.894938873448087036e-02
-5.951190065605245494e-02
-6.053091929281052830e-02
-6.139587663270996976e-02
-6.157765856928033160e-02
-6.073529045748504718e-02
-5.878463346346134849e-02
-5.591109669981857849e-02
-5.251618791647615775e-02
-4.911214498930115829e-02
-4.619594817240340462e-02
-4.413162139358872693e-02
-4.306006522401268494e-02
-4.285436283347300590e-02
-4.313781431976162345e-02
-4.336518339824726315e-02
-4.294512443386568762e-02
-4.137083724557979320e-02
-3.833097773706807543e-02
-3.378522407292389867e-02
-2.799037084017275134e-02
-2.146134411301736308e-02
-1.487046718091896910e-02
-8.914917296750809322e-03
-4.186929244389625548e-03
-1.065886642346426747e-03
3.545519832057254274e-04
2.836701078892311587e-04
-8.173685463554470612e-04
-2.342406106541572441e-03
-3.672897614448110502e-03
-4.304406664293309800e-03
-3.944318514819868636e-03
-2.563845479715812573e-03
-3.869947980296956991e-04
2.186096423740815659e-03
4.695530206704255118e-03
6.740004123864490673e-03
8.071909658210515981e-03
8.657171614695743922e-03
8.688173698640864334e-03
8.539706441897653225e-03
8.675038792348712183e-03
9.530977854796642695e-03
1.141423605391214680e-02
1.442650765320355882e-02
1.842852562890958876e-02
2.305804254679502674e-02
2.780649831272175021e-02
3.213329551639046433e-02
3.558360516581745431e-02
3.788509147447936820e-02
3.901189227750571226e-02
3.920431427804524360e-02
3.893143541023283416e-02
3.879727111674521195e-02
3.941199984113849530e-02
4.126066909636291746e-02
4.459666332673237893e-02
4.937771362476071901e-02
5.526001188761835853e-02
6.166117779015178185e-02
6.788224533278507111e-02
7.325483780454382365e-02
7.727493695922975359e-02
7.969912248155144874e-02
8.059181697728737270e-02
8.031292212988018486e-02
7.944145845761609037e-02
7.865163018466793388e-02
7.857408273368506058e-02
7.967256607655784362e-02
8.215424950125230219e-02
8.592874827925425785e-02
9.063185042837111627e-02
9.571361342042687681e-02
1.005645354586623269e-01
1.046451135317457981e-01
1.075955286029577629e-01
1.093120124251930753e-01
1.099739504772062754e-01
1.100068547193947532e-01
1.099854343482549179e-01
1.105044335243493547e-01
1.120512597494103396e-01
1.149032470339300810e-01
1.190648061397328178e-01
1.242634501394822844e-01
1.300147481595285426e-01
1.357388541858156883e-01
1.408926749853082472e-01
1.450854836422005301e-01
1.481603228319150478e-01
1.502306476460553153e-01
1.516598629382812646e-01
1.529796952253976439e-01
1.547666884568199286e-01
1.575115797173107512e-01
1.615084467911976907e-01
1.667787506510852724e-01
1.730472548481529760e-01
1.797845740710267703e-01
1.863103411493013395e-01
1.919282358119145382e-01
1.960594201423788707e-01
1.983521606951827998e-01
1.987534602775519188e-01
1.975252565294799145e-01
1.951912043708131372e-01
1.924233394683040055e-01
1.899014206042304032e-01
1.881790995131205069e-01
1.875783438859953689e-01
1.881294914343663027e-01
1.895763342218084180e-01
1.914505041075709180e-01
1.931913868368346776e-01
1.942750962928303515e-01
1.943273170831725238e-01
1.932079592799000878e-01
1.910510132570336639e-01
1.882396651200682614e-01
1.853176596828625955e-01
1.828644671962781076e-01
1.813679418071063587e-01
1.811171555944031120e-01
1.821317511889433138e-01
1.841484422735714110e-01
1.866768022843363628e-01
1.891096674459433746e-01
1.908549006802336967e-01
1.914583226003332417e-01
1.906988503005420110e-01
1.886393137674523546e-01
1.856156865901193720e-01
1.821613297268185050e-01
1.788865002219781342e-01
1.763456997068225673e-01
1.749205877009197829e-01
1.747388995346835783e-01
1.756488511212843662e-01
1.772602710605191145e-01
1.790413696546918620e-01
1.804413763002512550e-01
1.810086219663348261e-01
1.804854122019886598e-01
1.788676475949987354e-01
1.764132839908419681e-01
1.735892765476983735e-01
1.709678287256926887e-01
1.690991357174685683e-01
1.683900588859672531e-01
1.690114855704333285e-01
1.708510275445374038e-01
1.735271045249623389e-01
1.764699475069604340e-01
1.790478479104198328e-01
1.806994619849179307e-01
1.810444539568222266e-01
1.799617168723911531e-01
1.776207640809144284e-01
1.744481587567483227e-01
1.710325849288288624e-01
1.679993878255073569e-01
1.658877049806953830e-01
1.650478821595668943e-01
1.655719674858410206e-01
1.672763853399266143e-01
1.697497672802563695e-01
1.724547719344047270e-01
1.748508718482557622e-01
1.765063458166380439e-01
1.771833760985570549e-01
1.768841197940017318e-01
1.758428027222916634e-01
1.744605878753216766e-01
1.732012953084343942e-01
1.724768881612585847e-01
1.725454994226058858e-01
1.734388515665665764e-01
1.749403890552675422e-01
1.766298220941586727e-01
1.779836058256348830e-01
1.784986689073295718e-01
1.778080061887313823e-01
1.757701501241402120e-01
1.725196060945424215e-01
1.684623612925509606e-01
1.642080686534105050e-01
1.604516980264348580e-01
1.578355657384971911e-01
1.568236623635056171e-01
1.576087361722938729e-01
1.600686096536818592e-01
1.637887474928592102e-01
1.681504356127478950e-01
1.724577592060861919e-01
1.760687885487348669e-01
1.785073719884363586e-01
1.795423559118755896e-01
1.792181998674581000e-01
1.778214565921678314e-01
1.757901197687792016e-01
1.735956626492548283e-01
1.716286975576128970e-01
1.701093262946651308e-01
1.690366343310377717e-01
1.681920901786970735e-01
1.672047547681758672e-01
1.656611308979158981e-01
1.632229686303174887e-01
1.597236179783699805e-01
1.552310929539405526e-01
1.500681218248213211e-01
1.447741632501474418e-01
1.400083361998371856e-01
1.364183764694074374e-01
1.345108272615120615e-01
1.345476996152373816e-01
1.364847858396539548e-01
1.399674581022634090e-01
1.443958203277425634e-01
1.490480523607945473e-01
1.532254898051222947e-01
1.563821955070772152e-01
1.582197890059426626e-01
1.587370665985292362e-01
1.582212638875562793e-01
1.571763569958501694e-01
1.562046998453287816e-01
1.558728323423242690e-01
1.565913939860824333e-01
1.585280662558226916e-01
1.615677884385948726e-01
1.653352384415760490e-01
1.692801616617567451e-01
1.728007914996250172e-01
1.753713014466630193e-01
1.766520298307011350e-01
1.765698257542611394e-01
1.753477402178144906e-01
1.734653276707863456e-01
1.715568982711185853e-01
1.702795672261505078e-01
1.701839898444586774e-01
1.716078487708882772e-01
1.746086126988840304e-01
1.789566501984250768e-01
1.841963889041528801e-01
1.897529669873021241e-01
1.950468501833237667e-01
1.995904183610623661e-01
2.030581104546884397e-01
2.053235372757487576e-01
2.064501941807830032e-01
2.066318124291943448e-01
2.061011606242484084e-01
2.050362158116490752e-01
2.034850111347699109e-01
2.013233224701490576e-01
1.982596075453235684e-01
1.938954908202553673e-01
1.878302007826443409e-01
1.797794789086788469e-01
1.696794281784025360e-01
1.577568142343626079e-01
1.445525862480312451e-01
1.308828535886670252e-01
1.177303331767873690e-01
1.060862031163619518e-01
9.678290045082292570e-02
9.035429957706764270e-02
8.694483309938438875e-02
8.628453503370638045e-02
8.774367167825826430e-02
9.045941105526990322e-02
9.349992652425721806e-02
9.602377202771796016e-02
9.740854402025245218e-02
9.733851918469627051e-02
9.583764147022777458e-02
9.323303576385211233e-02
9.005447441726111002e-02
8.689902717022479628e-02
8.429495429686040264e-02
8.258747659819988540e-02
8.186301509063344251e-02
8.193228992184677095e-02
8.238343842232800918e-02
8.268960587246523830e-02
8.233726022192758287e-02
8.094614288425718007e-02
7.836323071213559255e-02
7.471219510375559647e-02
7.037831524497717428e-02
6.592778108280028526e-02
6.198621932138415058e-02
5.910862302386349354e-02
5.766327044305231964e-02
5.774636873575974411e-02
5.915011554540185873e-02
6.140336692936129714e-02
6.387853214153363379e-02
6.593206784778030127e-02
6.704035275906901348e-02
6.690580336205072254e-02
6.551887433801240057e-02
6.316057343283548731e-02
6.033726775600073422e-02
5.766292997347810534e-02
5.572126780982650240e-02
5.493810531778459821e-02
5.548556364674546437e-02
5.723713626757011980e-02
5.978991510468825710e-02
6.255373983011250361e-02
6.488277287104168845e-02
6.621329567413988815e-02
6.617967311630647276e-02
6.469147528211806331e-02
6.195594394408788369e-02
5.843502065698475550e-02
5.474423070183371404e-02
5.152008958239035624e-02
4.928859236015754874e-02
4.835823961390314091e-02
4.875557151888212232e-02
5.022378135702434965e-02
5.229205806085243657e-02
5.439488682854190515e-02
5.600481184665214579e-02
5.674879505793346823e-02
5.649108025896238533e-02
5.536728634117200204e-02
5.375314179860224417e-02
5.216673113108605264e-02
5.112776512124273670e-02
5.100980567249554370e-02
5.191959542625104729e-02
5.363194452253859656e-02
5.560519891385434094e-02
5.709139683196439580e-02
5.732687028601550494e-02
5.575957897246294759e-02
5.226161294844161587e-02
4.728745498089483718e-02
4.194739348905755782e-02
3.796603377544000707e-02
3.751268173422303565e-02
4.293033738169193397e-02
5.642662780493080954e-02
7.979640277875491017e-02
1.142281215369366637e-01
1.602291557431054780e-01
2.176854695086093971e-01
2.860308229138889269e-01
3.644546218253443270e-01
4.520581643913182956e-01
5.478856848120057244e-01
6.507929457958110397e-01
7.591807464151670848e-01
8.707333560614378687e-01
9.823451587390471529e-01
1.090282314316045387e+00
1.190468055746456644e+00
1.278769504665130397e+00
1.351240181595064760e+00
1.404326624146821523e+00
1.435053895929614631e+00
1.441189098679038327e+00
1.421375521420554122e+00
1.375239743559003136e+00
1.303477956894677936e+00
1.207909017221555192e+00
1.091460601097619110e+00
9.580592147485910148e-01
8.124204991295015388e-01
6.597600708952711113e-01
5.054548228131581222e-01
3.546891030613673057e-01
2.121301901687093205e-01
8.167751264500196229e-02
-3.369385646470095252e-02
-1.320015006771880217e-01
-2.122492053976639537e-01
-2.743545162886899536e-01
-3.190241131604497071e-01
-3.476059893830105163e-01
-3.619468204116065846e-01
-3.642630196171410817e-01
-3.570189190428020853e-01
-3.428079290012430724e-01
-3.242398281714913844e-01
-3.038300355451181711e-01
-2.838778143628675754e-01
-2.663334789834121419e-01
-2.526739651719394630e-01
-2.438104788023960634e-01
-2.400442430648055681e-01
-2.410781345037623924e-01
-2.460912135029785230e-01
-2.538776280656644402e-01
-2.630340947063701251e-01
-2.721660587440138390e-01
-2.800794582228092744e-01
-2.859316870364284058e-01
-2.893223638652230867e-01
-2.903054618212314031e-01
-2.893155020900901597e-01
-2.870278094237128652e-01
-2.841929515551681051e-01
-2.814802464388996284e-01
-2.793489636796189779e-01
-2.779648208186295544e-01
-2.771851711434609178e-01
-2.766205706113343266e-01
-2.757514269977160981e-01
-2.740648983409481043e-01
-2.711830940844983107e-01
-2.669614730946346381e-01
-2.615355897495139081e-01
-2.552989023069759944e-01
-2.488162524045085811e-01
-2.427013462570072611e-01
-2.374915127686273719e-01
-2.335415619963900069e-01
-2.309521173315408071e-01
-2.295518205551919100e-01
-2.289463030806889177e-01
-2.286216653770177243e-01
-2.280689856054877729e-01
-2.268991480459413845e-01
-2.249305092094998904e-01
-2.222322680445813214e-01
-2.191050533017168400e-01
-2.159990586992134587e-01
-2.133957156453062665e-01
-2.116863141072728161e-01
-2.110714863451487455e-01
-2.114975484169721587e-01
-2.126463422445850626e-01
-2.139894034754755148e-01
-2.148956198839721554e-01
-2.147622433072443049e-01
-2.131383225850426721e-01
-2.098200038962257097e-01
-2.049028584935385366e-01
-1.987752944040585279e-01
-1.920452619658471749e-01
-1.854153041153743520e-01
-1.795411603500186859e-01
-1.749073613974969910e-01
-1.717366884327811705e-01
-1.699473424874812788e-01
-1.691759170608785889e-01
-1.688674114102472479e-01
-1.684071176200667153e-01
-1.672591538431785207e-01
-1.650836665196186437e-01
-1.618136558499937705e-01
-1.576723599423207889e-01
-1.531193367526781091e-01
-1.487391436797572963e-01
-1.451068440932276327e-01
-1.426614267753983090e-01
-1.416050503575610464e-01
-1.418429532776934177e-01
-1.429834835789133840e-01
-1.444084643378663046e-01
-1.453982256334954148e-01
-1.452769228393254175e-01
-1.435473307601152215e-01
-1.399956296874942940e-01
-1.347459846555380536e-01
-1.282426910959625632e-01
-1.211576373680276902e-01
-1.142520255051531625e-01
-1.082319168745713850e-01
-1.036234235829394529e-01
-1.006816126113046495e-01
-9.935224412804494198e-02
-9.930452758602842378e-02
-1.000275736870443466e-01
-1.009584088987278139e-01
-1.016087745899379446e-01
-1.016686806016993544e-01
-1.010674971536134475e-01
-9.997318984428729682e-02
-9.872632228497849050e-02
-9.773153749809618263e-02
-9.734156312077472950e-02
-9.776105500286129402e-02
-9.898262018149933672e-02
-1.007652050766228435e-01
-1.026700021141741526e-01
-1.041535175528693347e-01
-1.046907423402579362e-01
-1.038953797357675124e-01
-1.016158429536925673e-01
-9.799086395331162158e-02
-9.344551830728434205e-02
-8.861746175213594534e-02
-8.422817647601524293e-02
-8.093473916832907844e-02
-7.919789466969055780e-02
-7.918796688655409255e-02
-8.074152639582082847e-02
-8.338240111148237377e-02
-8.641123266732392283e-02
-8.904363751503491242e-02
-9.056015379968135326e-02
-9.043768545530722625e-02
-8.844599105980248399e-02
-8.469195061471572472e-02
-7.959364115794025085e-02
-7.378629098771309625e-02
-6.798787277774746840e-02
-6.285946891280839999e-02
-5.888449799215694086e-02
-5.628274083161155517e-02
-5.497808974767687262e-02
-5.463371753039514972e-02
-5.474700901109087053e-02
-5.477632458459375658e-02
-5.426795470289269563e-02
-5.296161172245849452e-02
-5.085638663639123480e-02
-4.821462837895671566e-02
-4.549452554893421846e-02
-4.323225201055589523e-02
-4.191099460941042493e-02
-4.184589002704273974e-02
-4.309954756949429394e-02
-4.544377731806736875e-02
-4.838742467103224892e-02
-5.127155097437009063e-02
-5.340479176050461768e-02
-5.420328340636666048e-02
-5.330921872741967160e-02
-5.066898736335289505e-02
-4.655041466268854122e-02
-4.148720579946239828e-02
-3.616273357254977394e-02
-3.126413545588539733e-02
-2.734094194511584724e-02
-2.469520802288008646e-02
-2.332302826840710816e-02
-2.292348673653342439e-02
-2.297697737389249942e-02
-2.287202840212772606e-02
-2.204541312177700496e-02
-2.010266019021637526e-02
-1.690011310956899063e-02
-1.257586019749706852e-02
-7.516190291370085028e-03
-2.261213544562704156e-03
2.620349051180918126e-03
6.651399606401819063e-03
9.541739263346624492e-03
1.124959445564313078e-02
1.199469698592806402e-02
1.220939109229932269e-02
1.243705277865160552e-02
1.320778955270619955e-02
1.492198437985017140e-02
1.776115249542316310e-02
2.164091502468894548e-02
2.622426356473186310e-02
3.100109653939563809e-02
3.541046905912247772e-02
3.896743378957844006e-02
4.136838449726241290e-02
4.256341388981696450e-02
4.278215428011025029e-02
4.249704124895760382e-02
4.232572867228080737e-02
4.289779934220840085e-02
4.471911573336574686e-02
4.806102835400057754e-02
5.289419044406742931e-02
5.888480170419194137e-02
6.546010808744948117e-02
7.192562590541598522e-02
7.760139903842902531e-02
8.194914112898069036e-02
8.467357908123064603e-02
8.578350384035450527e-02
8.559408736635454318e-02
8.466152697728712706e-02
8.366371490863233618e-02
8.325745854657240486e-02
8.394440296169103366e-02
8.597038561465443485e-02
8.927915354459760311e-02
9.353600281289710383e-02
9.821609100784901847e-02
1.027283939262659956e-01
1.065399201647420219e-01
1.092773278209960841e-01
1.107964408244188625e-01
1.112067618762662136e-01
1.108366807609372090e-01
1.101447618438242543e-01
1.096030603252087232e-01
1.095820175526871498e-01
1.102581131142737064e-01
1.115616329462204709e-01
1.131837382500361505e-01
1.146477483994317176e-01
1.154235580351160723e-01
1.150519292663555598e-01
1.132522815593979409e-01
1.099997202098650373e-01
1.055566243451235842e-01
1.004401408909423310e-01
9.532528434322606881e-02
9.091167862617910433e-02
8.778847707804982026e-02
8.631985357925819891e-02
8.656798394580224321e-02
8.827447766062991585e-02
9.091342602896980429e-02
9.380422097747710686e-02
9.625125287694792642e-02
9.767750752654881519e-02
9.773222417331341172e-02
9.635758859967957779e-02
9.379623944348580711e-02
9.053075962522405540e-02
8.716823462905742836e-02
8.430076080272108641e-02
8.237516250941190332e-02
8.159602120024324334e-02
8.188242601540975107e-02
8.289531000373730196e-02
8.413165813151381178e-02
8.505645853372635623e-02
8.523502464131883782e-02
8.443855479397721631e-02
8.270660644513028181e-02
8.035142456831854962e-02
7.789580081217938046e-02
7.595658209267895644e-02
7.510455366600031490e-02
7.573391553271678622e-02
7.796379675056064329e-02
8.158845788168613000e-02
8.609541945232081217e-02
9.075760175515303063e-02
9.477550315858641883e-02
9.742934880469712733e-02
9.821053624558286066e-02
9.691647990921259392e-02
9.369394425476185173e-02
8.901426823238134389e-02
8.357977269167714274e-02
7.818431573875493645e-02
7.356100912312946161e-02
7.024561039432664078e-02
6.847873860968091420e-02
6.816990077498792655e-02
6.893723459903235151e-02
7.021180439989223310e-02
7.137518774390018417e-02
7.189803218466829515e-02
7.145575511103030575e-02
7.000232181062138181e-02
6.778229458377670047e-02
6.527057357572917107e-02
6.305484549236943514e-02
6.169620998852308469e-02
6.160085277076859239e-02
6.292271572098834254e-02
6.551539333704020640e-02
6.895155111295515893e-02
7.260922671849719123e-02
7.579938059385073201e-02
7.790118858574802962e-02
7.848043579696417638e-02
7.737499683543558326e-02
7.472930774726604941e-02
7.096159315898709075e-02
6.666783106641414880e-02
6.249096434801742345e-02
5.898964163939157679e-02
5.652928745367642033e-02
5.521393688800147609e-02
5.488025182861540341e-02
5.515883026054708982e-02
5.557873239141221389e-02
5.568180705604676428e-02
5.512561621847706511e-02
5.376391259209234441e-02
5.168986065463842400e-02
4.922346623740191107e-02
4.683964024048108132e-02
4.505745748756621871e-02
4.432175901887190628e-02
4.490144899548719620e-02
4.682082542764365307e-02
4.984180813795907605e-02
5.350955790579737387e-02
5.725036671155132179e-02
6.049071612822293914e-02
6.276875938536474742e-02
6.382307821855941199e-02
6.364620234134292509e-02
6.248501780786706872e-02
6.078125705008383811e-02
5.906941627494503161e-02
5.786157578560727904e-02
5.754267494770874680e-02
5.829124006691348975e-02
6.004255390588935509e-02
6.251000623098673659e-02
6.526064410984677711e-02
6.781964229056591797e-02
6.977567343907291331e-02
7.087024089647618597e-02
7.106046067534319000e-02
7.053944422429689332e-02
6.969923480942172289e-02
6.904237060043223739e-02
6.907011048728413372e-02
7.017506153686411952e-02
7.255333590837506619e-02
7.615046862811400419e-02
8.066221297350381625e-02
8.559903992203352074e-02
9.039375302663363310e-02
9.451660539099013270e-02
9.757165251464236522e-02
9.936247705934106444e-02
9.991816575587882110e-02
9.946892608573661143e-02
9.837170474511787444e-02
9.700564963906507798e-02
9.566610850622445095e-02
9.447865818400412452e-02
9.334767057309423244e-02
9.195633216035137281e-02
8.982856049023148215e-02
8.643863180655510237e-02
8.133503827974432332e-02
7.424994037088673837e-02
6.518187452687507211e-02
5.444236211406871390e-02
4.264669941768738787e-02
3.063350320178519562e-02
1.932602728276618456e-02
9.572749298850260699e-03
2.002949502619004105e-03
-3.080201438193732461e-03
-5.749265380785572276e-03
-6.426544121694577338e-03
-5.783550680027467646e-03
-4.595929541693227934e-03
-3.594226136278127082e-03
-3.336321130924610294e-03
-4.116037584207762369e-03
-5.927090936538289070e-03
-8.497093212326580630e-03
-1.138229830815868163e-02
-1.409247841400548817e-02
-1.621371297609859249e-02
-1.750714927106341093e-02
-1.796650043419615803e-02
-1.781752997301844915e-02
-1.745593355273070829e-02
-1.734328291588586174e-02
-1.789373862413209254e-02
-1.937697396513905768e-02
-2.184879933713159555e-02
-2.512238623754045261e-02
-2.879835686782675208e-02
-3.235512494880260492e-02
-3.527321336289678672e-02
-3.715679754795763595e-02
-3.782673675736185348e-02
-3.737090916680377989e-02
-3.613722808720984392e-02
-3.466193012268761753e-02
-3.355078616689199933e-02
-3.334829784606160863e-02
-3.442362571917462893e-02
-3.688865834945560807e-02
-4.056119884295127098e-02
-4.498832700266596624e-02
-4.953305225418058039e-02
-5.350437758773168156e-02
-5.629776155970683121e-02
-5.751642234425650979e-02
-5.705328333426660375e-02
-5.511661993921504465e-02
-5.218613336115071610e-02
-4.890589330523323341e-02
-4.594498239709096654e-02
-4.386109407240127572e-02
-4.298992943460670790e-02
-4.337535737017044618e-02
-4.475782253611892969e-02
-4.663426302465084605e-02
-4.837841049598518017e-02
-4.938486797762675629e-02
-4.920032656255712150e-02
-4.762157318621738911e-02
-4.474538662574559927e-02
-4.095306606969870838e-02
-3.682556600468021163e-02
-3.301141703455510307e-02
-3.008428533172761640e-02
-2.842015850212300382e-02
-2.811215695291838235e-02
-2.894054820962733282e-02
-3.041436679861637613e-02
-3.188184531610425976e-02
-3.268154148288188870e-02
-3.229646871896260651e-02
-3.048233157363602203e-02
-2.734988384862194893e-02
-2.337976467017294224e-02
-1.935466930400344190e-02
-1.621713339431078704e-02
-1.487997550291350959e-02
-1.602046269726001282e-02
-1.988802377239242553e-02
-2.615855786525840901e-02
-3.387423190088596769e-02
-4.149656698324998699e-02
-4.706792243737949882e-02
-4.844669526886604544e-02
-4.357043989456243355e-02
-3.069918560542086658e-02
-8.587094867704708409e-03
2.346096147119815234e-02
6.565426508714973519e-02
1.178663632194128091e-01
1.798142427458526704e-01
2.512068770248020999e-01
3.317995394698600720e-01
4.212982289790628276e-01
5.191042168524603317e-01
6.239684535919888253e-01
7.337035305764388893e-01
8.450935471612732730e-01
9.540245392945075897e-01
1.055767041129872963e+00
1.145350835016952118e+00
1.217988450158662639e+00
1.269489291132025688e+00
1.296604964959664930e+00
1.297270694159383009e+00
1.270735620408141475e+00
1.217587760284752019e+00
1.139680592623662614e+00
1.039974866122794772e+00
9.223177102132296135e-01
7.911794224509922646e-01
6.513645586523316711e-01
5.077194322265534687e-01
3.648682565367201147e-01
2.270066710750428540e-01
9.775953892961325442e-02
-1.990850868230648052e-02
-1.237414832735303782e-01
-2.122033981748660536e-01
-2.844591366605079830e-01
-3.403423646430369653e-01
-3.803250344641774805e-01
-4.054837582132123086e-01
-4.174457093484461034e-01
-4.183046377837050245e-01
-4.105108622421115849e-01
-3.967333896437058027e-01
-3.796833372958401953e-01
-3.619062623926550537e-01
-3.455793815200542407e-01
-3.323514241665159186e-01
-3.232414187189860955e-01
-3.186014002088546904e-01
-3.181539465263716893e-01
-3.211114044484777996e-01
-3.263600218294148703e-01
-3.326710083999130929e-01
-3.388996549506269607e-01
-3.441465534066580623e-01
-3.478625222797820382e-01
-3.498790426046085034e-01
-3.503586320523173758e-01
-3.496855877383998057e-01
-3.483331536599100775e-01
-3.467370640679193206e-01
-3.451913518681019588e-01
-3.437825145010840466e-01
-3.423845985733275366e-01
-3.407212871931703524e-01
-3.384714911287730055e-01
-3.353827283989377350e-01
-3.313633437787417146e-01
-3.265362571078704312e-01
-3.212420530833940968e-01
-3.159835440024652553e-01
-3.113224061789189867e-01
-3.077589472631088729e-01
-3.056257746017828070e-01
-3.050104076827429567e-01
-3.057160231179270604e-01
-3.072769629891280441e-01
-3.090388832035207423e-01
-3.102871160648771887e-01
-3.103883639340077605e-01
-3.089144706011781039e-01
-3.057290183205342848e-01
-3.010198099039474440e-01
-2.952614684219750374e-01
-2.891118543582278932e-01
-2.832728751122698951e-01
-2.783533984122728566e-01
-2.747572557894220613e-01
-2.726078682114908003e-01
-2.717255800401642829e-01
-2.716718580995793331e-01
-2.718511639880502595e-01
-2.716406406223896286e-01
-2.705192951752864450e-01
-2.681775901692951547e-01
-2.645863559777283380e-01
-2.599999415754788434e-01
-2.548865854189988345e-01
-2.498105567080466938e-01
-2.453039381249512707e-01
-2.417552082517429590e-01
-2.393276897041116402e-01
-2.379215550223786335e-01
-2.371965837447838898e-01
-2.366571261928975545e-01
-2.357750418720605257e-01
-2.341151606006463826e-01
-2.314368043617457960e-01
-2.277551779343001681e-01
-2.233465305652943544e-01
-2.186882177391747395e-01
-2.143472728562591523e-01
-2.108496231667009169e-01
-2.085620677557546432e-01
-2.076074873027348999e-01
-2.078264101010563747e-01
-2.087986534048680010e-01
-2.099292591645185169e-01
-2.105778196278403624e-01
-2.101951440248418235e-01
-2.084390483782589676e-01
-2.052530904987802107e-01
-2.008915263096015535e-01
-1.958745598126853671e-01
-1.908792547266032202e-01
-1.865972390033124317e-01
-1.835951088083954130e-01
-1.822009653189380907e-01
-1.824318530002957128e-01
-1.839784539234831928e-01
-1.862590583420537793e-01
-1.885348899247035470e-01
-1.900576442032091140e-01
-1.902152829091498798e-01
-1.886517965672362684e-01
-1.853415056058612398e-01
-1.805953197430126278e-01
-1.749887645141958159e-01
-1.692324493175690336e-01
-1.640256011291488236e-01
-1.599252697093782316e-01
-1.572456493742950545e-01
-1.560017806737561130e-01
-1.559185957277277879e-01
-1.565092738175697107e-01
-1.571988046326572019e-01
-1.574581819725227871e-01
-1.569218101557929568e-01
-1.554687531227038622e-01
-1.532482630260055267e-01
-1.506365058509637200e-01
-1.481362552031902369e-01
-1.462537644334919729e-01
-1.453845986621689623e-01
-1.457238737339209000e-01
-1.472123650348482193e-01
-1.495351531496072750e-01
-1.521815583726071341e-01
-1.545535624832228005e-01
-1.560925731826618701e-01
-1.563957545441820585e-01
-1.553037241849146155e-01
-1.529414456453440097e-01
-1.496931218706409328e-01
-1.461110664617308319e-01
-1.427870827446803825e-01
-1.402240875189780245e-01
-1.387325728574989314e-01
-1.383649920296301239e-01
-1.389035782763869686e-01
-1.399132152661196338e-01
-1.408481936527186951e-01
-1.411806626393461161e-01
-1.405180502812100884e-01
-1.386900945919354589e-01
-1.357914274922150111e-01
-1.321629417048664767e-01
-1.283084788448419222e-01
-1.247717001705446888e-01
-1.220125277589855922e-01
-1.203097592165701252e-01
-1.196997346893882985e-01
-1.199622649165386912e-01
-1.206670792014235827e-01
-1.212762628089687211e-01
-1.212735799741782861e-01
-1.202848817740425902e-01
-1.181669813360601423e-01
-1.150527751176218666e-01
-1.113383606851436336e-01
-1.076038970423272567e-01
-1.044836170865725555e-01
-1.025225140300941029e-01
-1.020559728767311408e-01
-1.031283304218361951e-01
-1.054591118775191905e-01
-1.084737796820768180e-01
-1.114046506083945370e-01
-1.134391757850546772e-01
-1.138786490326206685e-01
-1.122758782725759852e-01
-1.085289138177247537e-01
-1.029101087155676886e-01
-9.601603369501295060e-02
-8.864626792463355109e-02
-8.164448833237598901e-02
-7.574206700399607750e-02
-7.143231677802083790e-02
-6.889050141857942788e-02
-6.795374422484855292e-02
-6.817125776572606488e-02
-6.891415700204510386e-02
-6.951432997295146909e-02
-6.940147882665979873e-02
-6.821584685574343110e-02
-6.587612914376186901e-02
-6.258401639690189255e-02
-5.876172873601312463e-02
-5.494050638399303188e-02
-5.163235116436856731e-02
-4.921487642004272051e-02
-4.784541204865598585e-02
-4.741856896445744568e-02
-4.758504326301210563e-02
-4.783272495347462572e-02
-4.760669236441955610e-02
-4.643610387557245422e-02
-4.404191641614207259e-02
-4.040599838449542014e-02
-3.578339189538219667e-02
-3.064760304470002736e-02
-2.558121412193557417e-02
-2.114505900607009659e-02
-1.776026417717371103e-02
-1.562148838076776736e-02
-1.465135957488113844e-02
-1.451141488092837044e-02
-1.467761863597619176e-02
-1.456228907363189828e-02
-1.364618673758246845e-02
-1.159188190877880574e-02
-8.323191548257306491e-03
-4.052872441372925086e-03
7.583582269448121103e-04
5.503357629834965820e-03
9.558069203444591669e-03
1.240568235693931785e-02
1.373582611392376411e-02
1.350767211665753614e-02
1.196287626644153453e-02
9.577108740115553021e-03
6.957239436381004727e-03
4.710727786836505296e-03
3.320181488800769132e-03
3.046982078496413959e-03
3.878702027638904551e-03
5.535745014067774625e-03
7.542606064475525923e-03
9.343252558893292564e-03
1.042654152152234365e-02
1.043668806301317926e-02
9.255632307752803892e-03
7.041811108290082014e-03
4.206450126917759755e-03
1.325860301329636476e-03
-9.857629330000576909e-04
-2.208918173483457453e-03
-2.029829794261302917e-03
-4.111152711058563888e-04
2.395454221686983427e-03
5.903190303636928968e-03
9.496925301638021663e-03
1.255935806833851330e-02
1.459026020371954890e-02
1.530249769759278212e-02
1.467815941193583232e-02
1.296730367117414351e-02
1.062455702731948497e-02
8.198544329822421428e-03
6.203775527120900662e-03
5.005071244089862731e-03
4.734853836349191963e-03
5.260355231665474543e-03
6.216499618423407432e-03
7.100418929545055345e-03
7.396628181443131930e-03
6.696931149874720858e-03
4.794216326859267532e-03
1.740020144201404181e-03
-2.146381331376124614e-03
-6.328618021731463247e-03
-1.015782127595927543e-02
-1.300377558820401021e-02
-1.438002173104102263e-02
-1.404154164500322731e-02
-1.203986205283505417e-02
-8.717507937371134913e-03
-4.635052878715651206e-03
-4.515337353987419582e-04
3.207626801570460061e-03
5.869702957878501423e-03
7.303907307422504228e-03
7.563273974480474310e-03
6.963295422580832728e-03
5.997489312732722476e-03
5.213180297730476975e-03
5.081016609916324742e-03
5.884710268190129420e-03
7.649728542332629062e-03
1.012978372257770411e-02
1.286162454916337482e-02
1.527482614592256226e-02
1.682356066977165956e-02
1.710763370586917617e-02
1.596376886809705922e-02
1.351407947509594525e-02
1.015464369824014591e-02
6.477087434575430624e-03
3.141947419241953622e-03
7.381917263459622383e-04
-3.403485933706915318e-04
1.982598645581265875e-05
1.623109080995150440e-03
4.006153488579331651e-03
6.542730580366445947e-03
8.579903034206783075e-03
9.569640718783595928e-03
9.176046174426810004e-03
7.347194548077879556e-03
4.334352416505695901e-03
6.427730793802580297e-04
-3.078676244452281576e-03
-6.176163782486468988e-03
-8.122233403470449295e-03
-8.620419428988855548e-03
-7.668566348363854181e-03
-5.559465955153744705e-03
-2.809907632503552515e-03
-3.840815182762325700e-05
2.171484282258129631e-03
3.391397892448556883e-03
3.433747813054627111e-03
2.387602757023273882e-03
5.932189456631310927e-04
-1.440357741429360797e-03
-3.154449610858389187e-03
-4.070597757498070797e-03
-3.905496940955946461e-03
-2.646974532316138939e-03
-5.683481019768454661e-04
1.829631775642655321e-03
3.934015087225571292e-03
5.157267192643165410e-03
5.064292958702728067e-03
3.468608414113715302e-03
4.834427994671519277e-04
-3.488698615687974274e-03
-7.835296868972559114e-03
-1.186239685875569230e-02
-1.493603377164619272e-02
-1.660698577529721651e-02
-1.669905718585834933e-02
-1.534105756311941737e-02
-1.292756370197567332e-02
-1.001548137960338140e-02
-7.189474391236239971e-03
-4.934839631913253387e-03
-3.539181398569381676e-03
-3.031988398605326047e-03
-3.176766048046765056e-03
-3.528184305070086561e-03
-3.543191252732821438e-03
-2.713510021270156350e-03
-6.862419586700015421e-04
2.647913926391032031e-03
7.113445952491867855e-03
1.227214284152428406e-02
1.751106871251482261e-02
2.217177590507056831e-02
2.568285981522698894e-02
2.766785342277479007e-02
2.801667902338350960e-02
2.691008472958705822e-02
2.478292295710157397e-02
2.222887160268230064e-02
1.987312891057934836e-02
1.824485398306738282e-02
1.767256475462587045e-02
1.822108464634892774e-02
1.968870519140032693e-02
2.167189901170039901e-02
2.368103257233365386e-02
2.527235177554066486e-02
2.616132238537646412e-02
2.629778738980275213e-02
2.589264759622185094e-02
2.538204844850206268e-02
2.532549456400401758e-02
2.626145813781250588e-02
2.855974364815204447e-02
3.230433640612698221e-02
3.722762473056449167e-02
4.271138567397391589e-02
4.786591717331989404e-02
5.167907042773623588e-02
5.319874661567964430e-02
5.170529983380690170e-02
4.684684443555042765e-02
3.871998007985971019e-02
2.787582174902785218e-02
1.524148584203006973e-02
1.971748722222566638e-03
-1.073610016833842669e-02
-2.182873591029680857e-02
-3.055563056502738975e-02
-3.657355009342283525e-02
-3.997176686841718424e-02
-4.121091104543532502e-02
-4.099675470198126115e-02
-4.012543566845987175e-02
-3.933153650642767091e-02
-3.915955951872485130e-02
-3.987782799433892134e-02
-4.145596446554256770e-02
-4.361319927434715443e-02
-4.591933096917589358e-02
-4.791817962221606164e-02
-4.924771419603185540e-02
-4.973377566175473524e-02
-4.943209558815379878e-02
-4.860332700347401447e-02
-4.763117570516510468e-02
-4.691403518386443039e-02
-4.676120157059836940e-02
-4.731198561551575033e-02
-4.849038259810895674e-02
-5.001188159861875288e-02
-5.145023369556545739e-02
-5.234732749113530509e-02
-5.233165813484952356e-02
-5.121593865270123586e-02
-4.905968545822202154e-02
-4.618554253918886326e-02
-4.313532746856211381e-02
-4.056668299348129003e-02
-3.911746418932673941e-02
-3.927325696741799238e-02
-4.126137943501183292e-02
-4.498836896562662807e-02
-5.003954297548396379e-02
-5.574834234533537769e-02
-6.132093513455993961e-02
-6.598497836030864372e-02
-6.912996015934452787e-02
-7.041559813183999317e-02
-6.983033146965610116e-02
-6.768438149627319100e-02
-6.453577595977719183e-02
-6.107036544057312805e-02
-5.796811772426405801e-02
-5.578023164948801155e-02
-5.483075134908864390e-02
-5.515892551712441721e-02
-5.652318563101876164e-02
-5.847262291280702629e-02
-6.046466699040136533e-02
-6.199509744546066042e-02
-6.271357837350836906e-02
-6.250402461814100197e-02
-6.150790160148181251e-02
-6.007885574022178710e-02
-5.868204627868769951e-02
-5.777043929750300816e-02
-5.766967623221234962e-02
-5.849084361917122193e-02
-6.008590572214561609e-02
-6.206214883573712982e-02
-6.385993572616677216e-02
-6.487433465358416473e-02
-6.458690399367034152e-02
-6.267963413143007312e-02
-5.911589606157684196e-02
-5.417430407098498824e-02
-4.841943203046592675e-02
-4.261005302632744907e-02
-3.757004808514283201e-02
-3.405302944372592955e-02
-3.262010453370151053e-02
-3.354097941910109265e-02
-3.672958000681679491e-02
-4.172580435882589089e-02
-4.772490648143669356e-02
-5.364209554301500177e-02
-5.819952248590171129e-02
-6.003239515808719146e-02
-5.780602183963960694e-02
-5.031989189732052198e-02
-3.657535738554928278e-02
-1.579864233289965739e-02
1.257936591282401116e-02
4.898180414555135948e-02
9.377000422420286863e-02
1.473238681627808966e-01
2.100744260710896982e-01
2.824442358626828020e-01
3.646720962894175466e-01
4.565386270350005882e-01
5.570541941788554885e-01
6.642035616702273160e-01
7.748460254951343718e-01
8.848281962346729035e-01
9.892953553725460925e-01
1.083133606053862552e+00
1.161458390972595733e+00
1.220068723015685253e+00
1.255796617470985366e+00
1.266703021904064252e+00
1.252112104997006758e+00
1.212518480000442045e+00
1.149422641278718960e+00
1.065143884711541755e+00
9.626396030251834768e-01
8.453457601783636033e-01
7.170463381212710541e-01
5.817639727176233677e-01
4.436494075207338406e-01
3.068512291900553079e-01
1.753640901630395821e-01
5.286476419620948081e-02
-5.745828821415523840e-02
-1.530780659651557463e-01
-2.322882945396557985e-01
-2.943191774253269277e-01
-3.393814322633433300e-01
-3.686254560240293521e-01
-3.840151947826275225e-01
-3.881205453033575448e-01
-3.838459657472133579e-01
-3.741356936531585187e-01
-3.617028321026886650e-01
-3.488143300833672078e-01
-3.371466693871429388e-01
-3.277240565002024764e-01
-3.209488058592880333e-01
-3.167159813426502768e-01
-3.145816866302437176e-01
-3.139460258605700216e-01
-3.142208593179394716e-01
-3.149613443723907058e-01
-3.159384974039416982e-01
-3.171360304115387607e-01
-3.186809321309939658e-01
-3.207413872574836344e-01
-3.234252946831729925e-01
-3.266989200328222487e-01
-3.303399194901459057e-01
-3.339411364892814205e-01
-3.369720265985621244e-01
-3.388815534432655929e-01
-3.392127852189274484e-01
-3.377050702152104011e-01
-3.343672998074035951e-01
-3.295024643280515808e-01
-3.236648110496039288e-01
-3.175536739123802632e-01
-3.118763138593240725e-01
-3.072172249620067075e-01
-3.039346444806110825e-01
-3.020953946647120802e-01
-3.014653804729233166e-01
-3.015677995639656772e-01
-3.017944027803429186e-01
-3.015361625928458245e-01
-3.003068664443063196e-01
-2.978454948217647558e-01
-2.941786829626938382e-01
-2.896176804245231273e-01
-2.846810114431005956e-01
-2.799657826538337058e-01
-2.760068361186908681e-01
-2.731557426334128569e-01
-2.714975282524536015e-01
-2.708191112979110859e-01
-2.706436561544015018e-01
-2.703296730569426098e-01
-2.692093712584434084e-01
-2.667319083965193349e-01
-2.625853457076287589e-01
-2.567764751677458768e-01
-2.496463754713622030e-01
-2.418096086300930980e-01
-2.340295108834766213e-01
-2.270636684442012831e-01
-2.215169659248716338e-01
-2.177266258846619063e-01
-2.156966083272541801e-01
-2.151008299690478354e-01
-2.153609219475657033e-01
-2.157763788476733946e-01
-2.156713518758834325e-01
-2.145291266408708153e-01
-2.120934430175221430e-01
-2.084154094028802251e-01
-2.038296134851790842e-01
-1.988644626674417881e-01
-1.941167159566875022e-01
-1.901249456226343226e-01
-1.872605497607467417e-01
-1.856474144719195141e-01
-1.851313240068988564e-01
-1.853174541471091785e-01
-1.856679188743206310e-01
-1.856277369416625134e-01
-1.847466421732698039e-01
-1.827765746695925730e-01
-1.797280856247343572e-01
-1.758656220431837336e-01
-1.716366849707700593e-01
-1.675591058187461679e-01
-1.641033413055429935e-01
-1.615945208262315469e-01
-1.601443694648623794e-01
-1.596249213363178376e-01
-1.596986530532740756e-01
-1.599022058056171480e-01
-1.597588996803506745e-01
-1.588909081999310691e-01
-1.571102682851757693e-01
-1.544728318594643102e-01
-1.512776061325999399e-01
-1.480028115694788371e-01
-1.451951490792263988e-01
-1.433453656032221413e-01
-1.427776053997620864e-01
-1.435684094201377659e-01
-1.455094452491139667e-01
-1.481302676440272026e-01
-1.507841355143854645e-01
-1.527741851349881663e-01
-1.534859623606986134e-01
-1.525012586348274968e-01
-1.496785918181929298e-01
-1.451850552347993539e-01
-1.394628997315740526e-01
-1.331318447457237597e-01
-1.268562522722391228e-01
-1.212146013501504416e-01
-1.165939804719686307e-01
-1.131220279948585566e-01
-1.106520133495693947e-01
-1.088120779275683903e-01
-1.071101681995403065e-01
-1.050672914940181252e-01
-1.023455586255285904e-01
-9.884444873317016489e-02
-9.474521215396175533e-02
-9.048627978093308488e-02
-8.666859667398578437e-02
-8.391791432516153282e-02
-8.274558584837880815e-02
-8.343813496388480244e-02
-8.598865869774269255e-02
-9.008029941248235639e-02
-9.513208796194179417e-02
-1.004026333778483410e-01
-1.051272336247754541e-01
-1.086563827176850183e-01
-1.105698049044034348e-01
-1.107479562425482261e-01
-1.093836385330855671e-01
-1.069232260820916353e-01
-1.039496379454063896e-01
-1.010411273463003717e-01
-9.864290373986200899e-02
-9.697363358173488601e-02
-9.597919909601999866e-02
-9.534914791420574798e-02
-9.460062708909229567e-02
-9.320730239786607918e-02
-9.073477739014741694e-02
-8.695163995115214040e-02
-8.190075971423865786e-02
-7.591697656531820604e-02
-6.957644833435665255e-02
-6.358334593886010022e-02
-5.862625251607716387e-02
-5.524219093821463450e-02
-5.371187848117087160e-02
-5.399857648569956342e-02
-5.574413982409832935e-02
-5.833160439603525538e-02
-6.100422346681801805e-02
-6.301077454774818565e-02
-6.374392158579163248e-02
-6.285056308968363370e-02
-6.029728377990617449e-02
-5.636958886231574484e-02
-5.159755835959689563e-02
-4.663044671931909635e-02
-4.209771554615188149e-02
-3.848545823812610928e-02
-3.604499091951469947e-02
-3.474850518910423819e-02
-3.430486293469005993e-02
-3.423475545630563777e-02
-3.398485819239530081e-02
-3.305056036983824302e-02
-3.108340844899616998e-02
-2.796723248792472305e-02
-2.384346075009603425e-02
-1.907155145926088188e-02
-1.413573682247791161e-02
-9.529370362745384626e-03
-5.645345872069778767e-03
-2.689545825060602954e-03
-6.321690845036880349e-04
7.868331793590796919e-04
1.993421258935076500e-03
3.473543244522283441e-03
5.655555232697967276e-03
8.806218694070956296e-03
1.295802982132701967e-02
1.788555606117011448e-02
2.314484856132965548e-02
2.817113095980451273e-02
3.240693878740092543e-02
3.542529943878378051e-02
3.702363686586859076e-02
3.727657118800421776e-02
3.653518931815487314e-02
3.536261377128619571e-02
3.441671037007527217e-02
3.431212963840128000e-02
3.549534145579429090e-02
3.815454497412392593e-02
4.218027073185961345e-02
4.719124546791055724e-02
5.262433240251009753e-02
5.786322473749652001e-02
6.237120587009110928e-02
6.580103181181264083e-02
6.806648993493435995e-02
6.936256731829321120e-02
7.012000465651961612e-02
7.089568428178559534e-02
7.222922414777155353e-02
7.450763567545903854e-02
7.786558972715253157e-02
8.213631312924520034e-02
8.686848588486552336e-02
9.141469916582270483e-02
9.507088034559699197e-02
9.722730570933769967e-02
9.749571846295147781e-02
9.579388933817846452e-02
9.237688506087726736e-02
8.780297693880734222e-02
8.283296407687890106e-02
7.828496260654260741e-02
7.488058677290343468e-02
7.311281799938984527e-02
7.315496029853620075e-02
7.482947937927265925e-02
7.765291128059205461e-02
8.095082475045757564e-02
8.400868142169316821e-02
8.621723964837559040e-02
8.718655556270084317e-02
8.681642945591605542e-02
8.531042499145768954e-02
8.312303977796497989e-02
8.084980430113429539e-02
7.909144341201668205e-02
7.832361520075381556e-02
7.879051565909724053e-02
8.043990391089651804e-02
8.292335454611578227e-02
8.566963381446915382e-02
8.800980021672535902e-02
8.931946312615249295e-02
8.914948357630726739e-02
8.732493838905010242e-02
8.399137846822091191e-02
7.958914051888932306e-02
7.475831104941010885e-02
7.020313421374457796e-02
6.655052568344699271e-02
6.422873019215792623e-02
6.338591262861416331e-02
6.386791922965026624e-02
6.526648873316789889e-02
6.702483347189377993e-02
6.856703864210431099e-02
6.942042140929378935e-02
6.931316523397419715e-02
6.823266907790559443e-02
6.642663211496130371e-02
6.434027035510508918e-02
6.250765159351145961e-02
6.142907083471316199e-02
6.146150516988808238e-02
6.273914775636720009e-02
6.514032095153778068e-02
6.831595963528520887e-02
7.177599148913567373e-02
7.500512273584448997e-02
7.757373498162180303e-02
7.922479699172679801e-02
7.992856770276046685e-02
7.989144860706719198e-02
7.950744574707556411e-02
7.926100033644732645e-02
7.960798991288996207e-02
8.086322357469699629e-02
8.311499181605597197e-02
8.618547460785143388e-02
8.965482464133002483e-02
9.294912545535972959e-02
9.546746392379402979e-02
9.671286561279214544e-02
9.639921888599989330e-02
9.451880741386731177e-02
9.135808330743233618e-02
8.744949460487937143e-02
8.346297342780616135e-02
8.006532785327734325e-02
7.778582251240073742e-02
7.691477019509995738e-02
7.744854663257451366e-02
7.909444998576854735e-02
8.134258295138376005e-02
8.358672926011191662e-02
8.525677066825167183e-02
8.593110981278795357e-02
8.541670584478766592e-02
8.378952064737654748e-02
8.138022883795402451e-02
7.869908537510071633e-02
7.631967163391371878e-02
7.475404663788363935e-02
7.434326648386124781e-02
7.517850766262690332e-02
7.707233501969935896e-02
7.959695591123917835e-02
8.218236171264405032e-02
8.424313671401396919e-02
8.530041733609729226e-02
8.507956801914784428e-02
8.357209357623529566e-02
8.104565236567017050e-02
7.798938614663629421e-02
7.500378910410197830e-02
7.266666177073720367e-02
7.140808113398700030e-02
7.141353935972749589e-02
7.257182719857448172e-02
7.448949438485120977e-02
7.657785886657843266e-02
7.818791854096630856e-02
7.875361544932370228e-02
7.791283500334979240e-02
7.559048550138336431e-02
7.202904241032159760e-02
6.774997291897154328e-02
6.344779616169586578e-02
5.984499146795962260e-02
5.754475870477170768e-02
5.690979751619779092e-02
5.798591570111750332e-02
6.048855572311652440e-02
6.386382523128765476e-02
6.741091731696936817e-02
7.042970529572990801e-02
7.235827482333646865e-02
7.287977172834936290e-02
7.198252007281324971e-02
6.995536049068949713e-02
6.731321511924980017e-02
6.467364272498264677e-02
6.261929252436654325e-02
6.157485834448689355e-02
6.171732692277815541e-02
6.293855247573178213e-02
6.487628219841208577e-02
6.700840851628454831e-02
6.878020340078473682e-02
6.973003599964013033e-02
6.959243129127323790e-02
6.836378004888643556e-02
6.631138720382633023e-02
6.391462823991060638e-02
6.175210863635709202e-02
6.036797785673946037e-02
6.015035963005498781e-02
6.124250884283233276e-02
6.350210459024892284e-02
6.652407896642116569e-02
6.972697976220638971e-02
7.247882770292403409e-02
7.422780889220172151e-02
7.461196455724417032e-02
7.353511285459279900e-02
7.119506775673055399e-02
6.804743174988013565e-02
6.470664246828010391e-02
6.181269568379736679e-02
5.989873693533841886e-02
5.928279409206194117e-02
5.999987519216127413e-02
6.179316907849009138e-02
6.417483490260507406e-02
6.654159413230976983e-02
6.830973180081496843e-02
6.903601015527299767e-02
6.850674574082715740e-02
6.678325846217642026e-02
6.418845245787145604e-02
6.123078842627470431e-02
5.848690206552463466e-02
5.647678260996879390e-02
5.555658938081459164e-02
5.584204190129549855e-02
5.717740799973981131e-02
5.916718564724028628e-02
6.126850778849658730e-02
6.291571965927274246e-02
6.364232512696783861e-02
6.317887838294722336e-02
6.151457963337108453e-02
5.890755584721157206e-02
5.583299244525273541e-02
5.287922767225082532e-02
5.062185174200205251e-02
4.950697225990662725e-02
4.976273782903412046e-02
5.135262898317477509e-02
5.398624038091848210e-02
5.719134662887693371e-02
6.042491418213585819e-02
6.318870585177466248e-02
6.512594329278531546e-02
6.608821105914240712e-02
6.615968250447372412e-02
6.562405037557549059e-02
6.487943751955825566e-02
6.433122323782923535e-02
6.429442344019574429e-02
6.492097955908715523e-02
6.615964107745547773e-02
6.776256755651105523e-02
6.934742324607195973e-02
7.049960729158083472e-02
7.088173501954520006e-02
7.032240703814150729e-02
6.887345453765868208e-02
6.682997864952686107e-02
6.470040173682919948e-02
6.312256730517935843e-02
6.274516074547233091e-02
6.410415545743987364e-02
6.751719378907701519e-02
7.300965285111218894e-02
8.028765874444429573e-02
8.877524767636255087e-02
9.771374818552000519e-02
1.062942147191582032e-01
1.137874821921920077e-01
1.196499756308849471e-01
1.235932301765235442e-01
1.256028724664066398e-01
1.258967450261479770e-01
1.248321972025137894e-01
1.227927505235203165e-01
1.200839823170508497e-01
1.168546379211461428e-01
1.130572831514381482e-01
1.084667628645165222e-01
1.027591456833917422e-01
9.562821661351229852e-02
8.690480690661130103e-02
7.665082197732375757e-02
6.521267931275365193e-02
5.322102207781163885e-02
4.152283864526200297e-02
3.105033242477215835e-02
2.265687345140922349e-02
1.695925157048121593e-02
1.421677787497235834e-02
1.426916451326148277e-02
1.655358288958615198e-02
2.020722418354409591e-02
2.423093414198120368e-02
2.767071555506080138e-02
2.977933401541025746e-02
3.013536618855419680e-02
2.870476589248221327e-02
2.582944104812117184e-02
2.213672261429498744e-02
1.838993098537312909e-02
1.532129522345400917e-02
1.348483893243914919e-02
1.315144249513671218e-02
1.426171240067578873e-02
1.644979476699914844e-02
1.913575825640154160e-02
2.165900062632071521e-02
2.341625757862146259e-02
2.398141616597477405e-02
2.319270234730017033e-02
2.118643377618081164e-02
1.835996863197899426e-02
1.527039078026647817e-02
1.249941141236612582e-02
1.051891636580410024e-02
9.582181806390446116e-03
9.661983896349011364e-03
1.045660151687265865e-02
1.146901588037389265e-02
1.213588630455205569e-02
1.196698386617631518e-02
1.066349546472247257e-02
8.198584843608943198e-03
4.845355952599677066e-03
1.135399661411584616e-03
-2.249446621973913343e-03
-4.621839484158376567e-03
-5.433282575696196659e-03
-4.392537723371391610e-03
-1.541209976547391544e-03
2.732232299369029803e-03
7.754342421509229435e-03
1.269455866070486050e-02
1.672492616568519580e-02
1.917594464279764876e-02
1.966454310523364085e-02
1.817259981197255625e-02
1.505168504248751739e-02
1.094598314196101006e-02
6.654384373592009058e-03
2.968314027881287665e-03
5.192051766802896614e-04
-3.391753443641264522e-04
4.098101387533279816e-04
2.463965976073343930e-03
5.294557194651004599e-03
8.281771386503477064e-03
1.085603387212578236e-02
1.261969715395037765e-02
1.343397356833219217e-02
1.345187681779681614e-02
1.307838922234092795e-02
1.286372098678683490e-02
1.336291295736302155e-02
1.499703868978415240e-02
1.793710060136835191e-02
2.203038288979037446e-02
2.679560131065177042e-02
3.149818702010955679e-02
3.528697691044690304e-02
3.735784002457106373e-02
3.711729758365035770e-02
3.432950783338301060e-02
2.922231727956010883e-02
2.252247674977594233e-02
1.540730353658578689e-02
9.383410652949390751e-03
6.115141525474127038e-03
7.227401352438949170e-03
1.411416616019581238e-02
2.779723775096448746e-02
4.887554337553109279e-02
7.757450656313573389e-02
1.138719045069475494e-01
1.576638345571436117e-01
2.089349217920466739e-01
2.678845381902209555e-01
3.349405571620477917e-01
4.106075572182101840e-01
4.951596590630080730e-01
5.882550066157665736e-01
6.885812360492159501e-01
7.936402107561655317e-01
8.997492708549420515e-01
1.002276211250588522e+00
1.096059785377780704e+00
1.175925580677819715e+00
1.237200724508434657e+00
1.276151159299105275e+00
1.290288971375720406e+00
1.278517963756302001e+00
1.241116927840220097e+00
1.179596740378614061e+00
1.096485165145542506e+00
9.950835030404471260e-01
8.792183825748085546e-01
7.530044327441717256e-01
6.206390213918898668e-01
4.862428556898726884e-01
3.537373230853015360e-01
2.267379059286304399e-01
1.084549473747512816e-01
1.606967359197765226e-03
-9.165516913475085792e-02
-1.698249076095529608e-01
-2.321157739530267106e-01
-2.785137220391176172e-01
-3.097830132203084341e-01
-3.274170838951667162e-01
-3.335315675516462020e-01
-3.306933638418842469e-01
-3.216887733511030745e-01
-3.092590716338836088e-01
-2.958516755649618912e-01
-2.834268946971744696e-01
-2.733357413135262814e-01
-2.662760600702284708e-01
-2.623368332501450628e-01
-2.611256870124245011e-01
-2.619492210112040476e-01
-2.640061156353033511e-01
-2.665616050368678214e-01
-2.690800912083888830e-01
-2.712941431099235579e-01
-2.731966362751420685e-01
-2.749653914553273348e-01
-2.768523149128845895e-01
-2.790717700738358231e-01
-2.817085857577879549e-01
-2.846582873673605962e-01
-2.876162692080490024e-01
-2.901277888371365798e-01
-2.916878832174100711e-01
-2.918595912110148460e-01
-2.903792235594835902e-01
-2.872310626100187947e-01
-2.826781396765765675e-01
-2.772320960453443228e-01
-2.715598028647761564e-01
-2.663534959958566151e-01
-2.622010680156817153e-01
-2.594785034512765987e-01
-2.582752059163859193e-01
-2.583683335043042706e-01
-2.592631877358107517e-01
-2.602971755020800360e-01
-2.607798877194312248e-01
-2.601333474293707204e-01
-2.580067897210322481e-01
-2.543490856714004100e-01
-2.494194647420690525e-01
-2.437259557018542355e-01
-2.379087954885650835e-01
-2.326048836419202792e-01
-2.283235745806075356e-01
-2.253494773915083182e-01
-2.236852286952605018e-01
-2.230530109133973260e-01
-2.229645584016405058e-01
-2.228431473178100475e-01
-2.221612312940358380e-01
-2.205602318356226499e-01
-2.179322752268232910e-01
-2.144466895563612030e-01
-2.105081432138777298e-01
-2.066551466909586909e-01
-2.034293633941072765e-01
-2.012495391850603332e-01
-2.003127909949132535e-01
-2.005361382162636763e-01
-2.015535556212276480e-01
-2.027807036836680454e-01
-2.035363476184853526e-01
-2.031872513823331505e-01
-2.012821440329073119e-01
-1.976530109611908947e-01
-1.924664125519966462e-01
-1.862041471519166325e-01
-1.795691330057716528e-01
-1.733443738817643243e-01
-1.682438892347299375e-01
-1.647818173702690348e-01
-1.631756817529937675e-01
-1.633021043661452010e-01
-1.647238802604332475e-01
-1.667882823068947695e-01
-1.687675729843955696e-01
-1.700036478195978418e-01
-1.700319499752964425e-01
-1.686677222960690503e-01
-1.660322261593863424e-01
-1.625045534964712490e-01
-1.586154818295790192e-01
-1.549226382196437490e-01
-1.518980330934893153e-01
-1.498370270078816791e-01
-1.487958089333924760e-01
-1.485796584485974126e-01
-1.487983923813624709e-01
-1.489732255230921953e-01
-1.486580807841779428e-01
-1.475464292052628135e-01
-1.455480522564885359e-01
-1.428180382557442951e-01
-1.397217295949169658e-01
-1.367431985834904329e-01
-1.343686106696865834e-01
-1.329748958722310470e-01
-1.327400578460916358e-01
-1.335871349608691305e-01
-1.351799202596890292e-01
-1.369824577820679401e-01
-1.383697413154708344e-01
-1.387584168428011855e-01
-1.377282191271317069e-01
-1.351145541056400778e-01
-1.310541898170181907e-01
-1.259659978731206276e-01
-1.204646529609669364e-01
-1.152308425464276392e-01
-1.108743396671783704e-01
-1.078176083541325242e-01
-1.062140433736477874e-01
-1.059169056868119740e-01
-1.065168323133138528e-01
-1.074440921283257022e-01
-1.081038669517334350e-01
-1.080075510426744267e-01
-1.068780824798214041e-01
-1.047152067010008319e-01
-1.018008071114400864e-01
-9.863269229811805205e-02
-9.580355014400648850e-02
-9.386185283648647293e-02
-9.318802415914990978e-02
-9.390401695617964228e-02
-9.582937279519851415e-02
-9.850142296358241345e-02
-1.012660197347651087e-01
-1.034165895168039778e-01
-1.043419349239480265e-01
-1.036510092916439196e-01
-1.012568219364442107e-01
-9.740240837459131218e-02
-9.261369880051779913e-02
-8.758490434160177973e-02
-8.302822847912112725e-02
-7.952727212003214696e-02
-7.742054043519394635e-02
-7.673065769067308195e-02
-7.715640306265846016e-02
-7.813894305587541778e-02
-7.899006402614870692e-02
-7.904760788054952803e-02
-7.782125884457533060e-02
-7.510393979386029151e-02
-7.102749401043002841e-02
-6.603867112667911876e-02
-6.079226530863036937e-02
-5.599510552671262825e-02
-5.224808471028493523e-02
-4.991929447815249277e-02
-4.906472989633196835e-02
-4.940920172820661288e-02
-5.040013791621727329e-02
-5.132954300629027217e-02
-5.149071560824502319e-02
-5.032849594130350129e-02
-4.755667566851677630e-02
-4.322514558253779532e-02
-3.771891644426353385e-02
-3.168269018623317418e-02
-2.588896329428713380e-02
-2.108314608877536953e-02
-1.783712571576923436e-02
-1.643466003410524665e-02
-1.681002508296896084e-02
-1.856093768246704773e-02
-2.104026211367554175e-02
-2.350109118147796980e-02
-2.525425239318284526e-02
-2.580554626292781706e-02
-2.495182577840746735e-02
-2.281578700168327214e-02
-1.980400026820142156e-02
-1.649722695030125807e-02
-1.350791397621904817e-02
-1.134225965281546872e-02
-1.028933768122755783e-02
-1.035091858431750819e-02
-1.122978402750467522e-02
-1.238973308260241796e-02
-1.317554391111674418e-02
-1.295903615783301072e-02
-1.127687334670821225e-02
-7.936235577498807273e-03
-3.068228163659353532e-03
2.890301993529918127e-03
9.288714994423585142e-03
1.540148191558810518e-02
2.057466227974467238e-02
2.435218499133345871e-02
2.656653116028472733e-02
2.737566034841819318e-02
2.722765978635064907e-02
2.675403916157013257e-02
2.661990411665686104e-02
2.737298317560220295e-02
2.932479021872932273e-02
3.248234627436705213e-02
3.654623925318714606e-02
4.098340841494330783e-02
4.515644903135652283e-02
4.847016825136896134e-02
5.050092498678703662e-02
5.109071204740871230e-02
5.039220792460039761e-02
4.884684933670477291e-02
4.709155472438206202e-02
4.581861503706810557e-02
4.562600700421118316e-02
4.688695441742533193e-02
4.966043558406368214e-02
5.366506486906718471e-02
5.833159542324034552e-02
6.292405355264069078e-02
6.669367177393553670e-02
6.902663115524332316e-02
6.956118669214110539e-02
6.826011441622630016e-02
6.542273007949497843e-02
6.162430345957117805e-02
5.759271076054309213e-02
5.405519562175695875e-02
5.159162273702509044e-02
5.052003497750594957e-02
5.083429327822752003e-02
5.221279278957152714e-02
5.410217992396898490e-02
5.585158175249610446e-02
5.685865321403110739e-02
5.669737685490577189e-02
5.520946819605902778e-02
5.254219921695805345e-02
4.911780767039550938e-02
4.553832186468712018e-02
4.245176426268979647e-02
4.041253905064954438e-02
3.976199670425777100e-02
4.054997482114480051e-02
4.251890712661698934e-02
4.516072257344444507e-02
4.782990122411462375e-02
4.987980698840038807e-02
5.079408030068204710e-02
5.029335901035452555e-02
4.839681256836607381e-02
4.541710047073508477e-02
4.188424472516214664e-02
3.842274257733822168e-02
3.561874917412497649e-02
3.390330560191610887e-02
3.346809696077007040e-02
3.423157937276652407e-02
3.586775508894887721e-02
3.789110868631356821e-02
3.977248003856559411e-02
4.105565693071094174e-02
4.145454526549051388e-02
4.091904256015425206e-02
3.965216653229029081e-02
3.806195192874015087e-02
3.665688904124689285e-02
3.591843889084692792e-02
3.618318859229051332e-02
3.755443048697442582e-02
3.985980059019300636e-02
4.267224729522600679e-02
4.539715520225640066e-02
4.740259704490551451e-02
4.815554884753403542e-02
4.733406567460379105e-02
4.489935975967988824e-02
4.111564501646551573e-02
3.650678422514972571e-02
3.175353847777254851e-02
2.755658620367063688e-02
2.449861714882099750e-02
2.293004537811853955e-02
2.289576771515614007e-02
2.412391956630311265e-02
2.608856972114654421e-02
2.812999645832531953e-02
2.959746325839966025e-02
2.998239028682533891e-02
2.902123960808968700e-02
2.675342991003100412e-02
2.351877385794632833e-02
1.988678449880693783e-02
1.653356833559114364e-02
1.409974447369295204e-02
1.305854058960512210e-02
1.361420597167984498e-02
1.565360457323959273e-02
1.877194870702267315e-02
2.236908859044903566e-02
2.578423305135196797e-02
2.843238187018170757e-02
2.991840669042799064e-02
3.011263824473069117e-02
2.917017282827212218e-02
2.748127594101932442e-02
2.556423067030631074e-02
2.393405510064895714e-02
2.297909756465740111e-02
2.286579955663972652e-02
2.349039453762172963e-02
2.449633906111621170e-02
2.535923844930500215e-02
2.551470730090911465e-02
2.449187342263956998e-02
2.202538259086165087e-02
1.813166767062329363e-02
1.313157371202546345e-02
7.603650746552156892e-03
2.275964017278321247e-03
-2.114479794617646260e-03
-4.962841736876425283e-03
-5.915432724333574005e-03
-4.947783798396655081e-03
-2.378547614057978463e-03
1.193989616264054011e-03
5.017593100375083992e-03
8.338733028715177020e-03
1.054809810300057736e-02
1.129514729993784210e-02
1.055306131282907588e-02
8.616777973605535546e-03
6.028189275560819592e-03
3.446398556314905857e-03
1.499225195820955234e-03
6.498905132346883369e-04
1.101210102478064699e-03
2.754986485708185544e-03
5.239385086000095115e-03
8.000169984370846671e-03
1.042954477225024532e-02
1.199759711556604852e-02
1.236116839538113632e-02
1.143497887999266917e-02
9.409557862775410828e-03
6.705559742841263153e-03
3.874032031423594973e-03
1.471115476843706717e-03
-6.268031834005826936e-05
-4.983220118452329553e-04
1.278675871179065253e-04
1.521450495008175221e-03
3.203529542132575042e-03
4.628951958820059880e-03
5.312897496923357082e-03
4.937682033825202717e-03
3.425641329501375940e-03
9.651850813322955221e-04
-2.025104000099177837e-03
-4.992899612721039132e-03
-7.381684666308979681e-03
-8.757419819403680986e-03
-8.907600087286714208e-03
-7.896667509347784011e-03
-6.060041766836177408e-03
-3.928802786100307580e-03
-2.104380034800183014e-03
-1.122138662782020194e-03
-1.337881180059838316e-03
-2.852742209875963088e-03
-5.483781826844075918e-03
-8.791896896549751539e-03
-1.217004964893619347e-02
-1.497152446957922961e-02
-1.664581407709670238e-02
-1.685650334490746902e-02
-1.556308562074881947e-02
-1.304502168798425329e-02
-9.850949610439425908e-03
-6.682401120197556041e-03
-4.245783422365221292e-03
-3.108334043840949457e-03
-3.581321182752396273e-03
-5.646652784606294266e-03
-8.945961405903373950e-03
-1.284575797183277503e-02
-1.656839188128489057e-02
-1.935357406143160125e-02
-2.061276475239431916e-02
-2.005205959167218749e-02
-1.774069535798157571e-02
-1.409971235969349410e-02
-9.806388288103090947e-03
-5.643670648702159634e-03
-2.338053556158796627e-03
-4.185823404422068942e-04
-1.159756715861315823e-04
-1.319722404848133052e-03
-3.608012362980118903e-03
-6.346457578629094085e-03
-8.830161957317792312e-03
-1.043564080888688753e-02
-1.075394722742282691e-02
-9.681446487633126388e-03
-7.443351326795534170e-03
-4.534795010384530360e-03
-1.595005554169820310e-03
7.437502848700930629e-04
1.993422965739339962e-03
1.913206200234206147e-03
5.649147819451402763e-04
-1.696897926752179934e-03
-4.306917090520603550e-03
-6.621488775823016967e-03
-8.061971906196214663e-03
-8.238017851226997132e-03
-7.033613742187589356e-03
-4.636317950319325878e-03
-1.493594820030681811e-03
1.793723711100786216e-03
4.607787958608392659e-03
6.444752794235941544e-03
7.018265231323187262e-03
6.322608427826665982e-03
4.638645072424949986e-03
2.470904148308579289e-03
4.302117258268591243e-04
-9.029617752193448569e-04
-1.102830525762686599e-03
7.615933016092758280e-06
2.309546638706686493e-03
5.408825003216737558e-03
8.727095084492656613e-03
1.163487423742678994e-02
1.358620236036678017e-02
1.422919479020032588e-02
1.348177491363633171e-02
1.155795586807015739e-02
8.927173962641353835e-03
6.209517473269728430e-03
4.036910611573944589e-03
2.917499940634679136e-03
3.127740081314828516e-03
4.647944063418119921e-03
7.160031228600502971e-03
1.011732243585605935e-02
1.286921967560843323e-02
1.480379322387385954e-02
1.547439730239019012e-02
1.469245852797011753e-02
1.257449536608861579e-02
9.526543717992972532e-03
6.160156153940001336e-03
3.160051938280084363e-03
1.137620286570959448e-03
5.008038179345413550e-04
1.363099685754506560e-03
3.512692480663643854e-03
6.456474498001239445e-03
9.530497657602204215e-03
1.204409374509482836e-02
1.342106339031463695e-02
1.331449184638729653e-02
1.168097818600786868e-02
8.796670429357479615e-03
5.201069673400718005e-03
1.578702555436798955e-03
-1.387132562568448978e-03
-3.153704781941106712e-03
-3.430474907205679699e-03
-2.244593153026739306e-03
6.313710425683190242e-05
2.919386479578330550e-03
5.652068882198980210e-03
7.635887494758034945e-03
8.419060695545608000e-03
7.816873929969369098e-03
5.956700276664070662e-03
3.254196215079522333e-03
3.189317418965733090e-04
-2.183164726499751442e-03
-3.673525556394280443e-03
-3.783382884213415225e-03
-2.434354304271820098e-03
1.460252411755485384e-04
3.485893958985399662e-03
6.988257171568614673e-03
1.006795944156982370e-02
1.227318104464038447e-02
1.337411785490839368e-02
1.340775879195168011e-02
1.266538652432411260e-02
1.161803842039327121e-02
1.079879311809384124e-02
1.067593383320352210e-02
1.154492647144895502e-02
1.345648405070206007e-02
1.619687258365400812e-02
1.933292687153224249e-02
2.231388162299772354e-02
2.459858818223851357e-02
2.577356588072543878e-02
2.564175339846707855e-02
2.427126608945897115e-02
2.199178058178767603e-02
1.933045190045069514e-02
1.689881414866193851e-02
1.526069119025612320e-02
1.481156560713102997e-02
1.568971373683622494e-02
1.773722134220933125e-02
2.052954865170584370e-02
2.347391185839579203e-02
2.594676571625732092e-02
2.742939583066586820e-02
2.761392458072816844e-02
2.646777317632161355e-02
2.424607617952050098e-02
2.144082620642938017e-02
1.867314487090258185e-02
1.655991558676329564e-02
1.559006163319810560e-02
1.603033485875278788e-02
1.787374999462652131e-02
2.084915683708013154e-02
2.449764212794224710e-02
2.829029051610706252e-02
3.174664907001410741e-02
3.452485978300186276e-02
3.647486349850535131e-02
3.765314932048633573e-02
3.829220994914808718e-02
3.872375305827677888e-02
3.927537574701332052e-02
4.017244353556718994e-02
4.146578540270916963e-02
4.299164438251674297e-02
4.437594428978237221e-02
4.509834232029398537e-02
4.460907971043888420e-02
4.246541915545533341e-02
3.845097121140057111e-02
3.265601123695226898e-02
2.550622224287692197e-02
1.772471497547199390e-02
1.022048943854609454e-02
3.922760256558390814e-03
-3.969573059209853495e-04
-2.271814404814313619e-03
-1.628351574326884765e-03
1.198677984618881642e-03
5.535434672448129832e-03
1.051068959217083681e-02
1.523053951483580547e-02
1.893889885522323860e-02
2.113232599324329705e-02
2.162117687418379369e-02
2.053682485585977061e-02
1.827982463564999105e-02
1.541403093152958655e-02
1.253359032446995334e-02
1.013635420900082726e-02
8.524660671093035186e-03
7.746180554117191447e-03
7.592085909079004935e-03
7.662661131068907762e-03
7.483279391148713044e-03
6.632877628591581261e-03
4.852441148267790279e-03
2.120128374723163726e-03
-1.316028236229188457e-03
-4.965705464906223707e-03
-8.190783817265023109e-03
-1.034284961683988938e-02
-1.090500223227790222e-02
-9.608786792922104081e-03
-6.508446154350045962e-03
-1.994216460568576377e-03
3.269098071373868850e-03
8.467382255609659167e-03
1.279097677472885129e-02
1.557971720705161357e-02
1.643562798959834551e-02
1.528967977474640465e-02
1.240833643691020317e-02
8.330775803261199208e-03
3.749628826618098265e-03
-6.327955060339810096e-04
-4.241111840207942817e-03
-6.734474256613596534e-03
-8.065127610296344771e-03
-8.467280736799556035e-03
-8.374801187539833783e-03
-8.296011357299185734e-03
-8.684414076989395437e-03
-9.830211101209768154e-03
-1.178321983959510107e-02
-1.432296207249631609e-02
-1.699630708876900473e-02
-1.922071516892809306e-02
-2.042188907777826509e-02
-2.016946329320341152e-02
-1.828558659678980111e-02
-1.490684553546974336e-02
-1.047923897238985103e-02
-5.675992643094330756e-03
-1.255309184280218281e-03
2.101065470727958399e-03
3.928870302472691964e-03
4.079872159249560599e-03
2.762872953822860956e-03
5.102534986112392196e-04
-1.930507709402674334e-03
-3.753956507032031077e-03
-4.266382729456567185e-03
-3.037392057816956821e-03
-7.999322256043860276e-06
4.471365023942873440e-03
9.694469466572822741e-03
1.473805883068846773e-02
1.865166977309430998e-02
2.066187056279384510e-02
2.036026671248272052e-02
1.784317018277298272e-02
1.377006412148715914e-02
9.319039100418381391e-03
6.044197689925954325e-03
5.669895313562075059e-03
9.865550360800130064e-03
2.003660031526353566e-02
3.717064082846088802e-02
6.178292758039569815e-02
9.397725453979896559e-02
1.335935195346828197e-01
1.803910126896864641e-01
2.342123465625543244e-01
2.950697316148016558e-01
3.631021063730221488e-01
4.383884320382536726e-01
5.206584919701062741e-01
6.089821114557282256e-01
7.015298447593172337e-01
7.954840873704915882e-01
8.871377877349526653e-01
9.721699775016230394e-01
1.046052254144868909e+00
1.104511768943674976e+00
1.143960658835489586e+00
1.161822597473280982e+00
1.156731130165222998e+00
1.128599064497804338e+00
1.078562873634988373e+00
1.008820086763020818e+00
9.223956584480295096e-01
8.228753029337764202e-01
7.141327151053251665e-01
6.000683939493647312e-01
4.843813445805708051e-01
3.704005307172399952e-01
2.609887045949478290e-01
1.585057547877725403e-01
6.480921144564791292e-02
-1.872219723795818386e-02
-9.115066448177851222e-02
-1.519424668633027886e-01
-2.009498609838101801e-01
-2.384140356343613376e-01
-2.649729888543845835e-01
-2.816550032322266972e-01
-2.898463168712303029e-01
-2.912244824558544720e-01
-2.876483619348860210e-01
-2.810097193132626292e-01
-2.730728888288008194e-01
-2.653320576949269038e-01
-2.588999895134844187e-01
-2.544333302547121534e-01
-2.521104265603099082e-01
-2.516819229779319045e-01
-2.525920273710903219e-01
-2.541408010649236493e-01
-2.556491622100940386e-01
-2.565979441895464563e-01
-2.567226880262078459e-01
-2.560453482691453231e-01
-2.548306004115436507e-01
-2.534815175449358082e-01
-2.524138144694526020e-01
-2.519453851913723841e-01
-2.522177464099326083e-01
-2.531562107111218762e-01
-2.544800954120304270e-01
-2.557676679012489407e-01
-2.565587288248266651e-01
-2.564650364624613821e-01
-2.552642836253559699e-01
-2.529627284048049929e-01
-2.498117450167814391e-01
-2.462638330394050779e-01
-2.428721560096824272e-01
-2.401633255977645987e-01
-2.385182554997161142e-01
-2.380821233087015709e-01
-2.387165628746813206e-01
-2.400096075638558923e-01
-2.413522100888203237e-01
-2.420676157989797017e-01
-2.415588405565751440e-01
-2.394392673587573961e-01
-2.356257748190472012e-01
-2.303784453544777677e-01
-2.242676996039769111e-01
-2.180649404826258686e-01
-2.125845973254945620e-01
-2.085223500873179536e-01
-2.063230693446038155e-01
-2.060938725110777747e-01
-2.075754975161293314e-01
-2.101865177647374849e-01
-2.131367512958085297e-01
-2.155805906713309239e-01
-2.167737023567861410e-01
-2.162071186668010625e-01
-2.136993620001066130e-01
-2.094240531819573092e-01
-2.038600723846175355e-01
-1.976789064723099565e-01
-1.916025034896557677e-01
-1.862625168169500245e-01
-1.820820978565117210e-01
-1.792003706343658631e-01
-1.774623912499857237e-01
-1.764820785425730010e-01
-1.757567305646682010e-01
-1.747975597677718651e-01
-1.732482114799625827e-01
-1.709720990317244727e-01
-1.680878299990332114e-01
-1.649372170740459054e-01
-1.619933418448253337e-01
-1.597379281645704974e-01
-1.585405467712314997e-01
-1.585624409128529588e-01
-1.597005227100264102e-01
-1.615870207576345086e-01
-1.636534193567362461e-01
-1.652457184678298441e-01
-1.657595011896517423e-01
-1.647650477247507295e-01
-1.621037239646677397e-01
-1.579367574630511084e-01
-1.527246343726217093e-01
-1.471344751081372082e-01
-1.419033839201096492e-01
-1.376959894772682158e-01
-1.349821185651916833e-01
-1.339487386337805119e-01
-1.344630994094393184e-01
-1.361042403617000740e-01
-1.382593557399352802e-01
-1.402580144740136203e-01
-1.415107999900648561e-01
-1.416256182145456399e-01
-1.404830261166660488e-01
-1.382539392519716581e-01
-1.353495753679521685e-01
-1.323159641217501181e-01
-1.297060707753092124e-01
-1.279606599146157764e-01
-1.273137316993611934e-01
-1.277344036407091765e-01
-1.289250611572917149e-01
-1.303874498497548939e-01
-1.315397571972181934e-01
-1.318489356972545046e-01
-1.309479392543843879e-01
-1.287196786000674720e-01
-1.253308514313647704e-01
-1.212000996071260356e-01
-1.169043124610311263e-01
-1.130520187407231952e-01
-1.101580037664173367e-01
-1.085395369091004258e-01
-1.082466389255708206e-01
-1.090440589212635369e-01
-1.104592938739414748e-01
-1.118883965589150126e-01
-1.127289728965169407e-01
-1.125085464182458972e-01
-1.109878135392285692e-01
-1.082192479353936837e-01
-1.045394055347474566e-01
-1.004912082017319214e-01
-9.670005006825484195e-02
-9.373830774330856042e-02
-9.200443962839963130e-02
-9.163310700727364533e-02
-9.245487944440564099e-02
-9.402559332920122637e-02
-9.572545517023021977e-02
-9.689895113875489352e-02
-9.699781918078428933e-02
-9.569996992033188987e-02
-9.298415848939230177e-02
-8.913998583250211383e-02
-8.470433606436562901e-02
-8.034068935840683878e-02
-7.669627700504928758e-02
-7.427001187692656992e-02
-7.330943721511770650e-02
-7.375111721716506863e-02
-7.522568297764740952e-02
-7.713628148447736199e-02
-7.878862516751648781e-02
-7.953537850223889316e-02
-7.890554932722725068e-02
-7.669931011362282613e-02
-7.302872451403871756e-02
-6.828869002015910961e-02
-6.306208070591587389e-02
-5.798811265835231848e-02
-5.362946666537585227e-02
-5.035914274465056600e-02
-4.828089513297965929e-02
-4.720442789621886320e-02
-4.669100942575210578e-02
-4.616012415462561469e-02
-4.502633361038987925e-02
-4.283315961515554021e-02
-3.935924231086178338e-02
-3.467455943559270837e-02
-2.912659242848695748e-02
-2.325564519937404692e-02
-1.766594765445851298e-02
-1.289140706271264987e-02
-9.285708982371321599e-03
-6.951795646091802651e-03
-5.722245811875212827e-03
-5.199484754055096018e-03
-4.850079308781566484e-03
-4.129565502430780979e-03
-2.605710931280478745e-03
-5.500855769394001876e-05
3.481238364030788367e-03
7.695318231741422529e-03
1.207713757396898513e-02
1.603110179845984584e-02
1.901057887078784134e-02
2.063669362194448312e-02
2.078314637209951674e-02
1.961369894837843367e-02
1.755715950365517586e-02
1.521831445100697844e-02
1.324916339421945699e-02
1.221635520319192328e-02
1.249023202908069487e-02
1.416970254295153719e-02
1.706005349068452984e-02
2.071945657207086705e-02
2.456576756334753059e-02
2.800925980105695504e-02
3.057697976419540206e-02
3.201023096613713620e-02
3.232381473893970042e-02
3.181190077462137805e-02
3.098840641707123478e-02
3.047078883291273743e-02
3.083922732849345497e-02
3.250526868772946748e-02
3.561200130936660602e-02
3.998504929478118725e-02
4.515478603838873894e-02
5.045120135222946889e-02
5.514325387870477879e-02
5.858451461700169699e-02
6.033704259816257548e-02
6.025601800096251626e-02
5.851935353733315331e-02
5.558889920742569185e-02
5.210740241592568683e-02
4.875917170869951273e-02
4.613090033240905413e-02
4.459906104445542085e-02
4.425937793684957960e-02
4.491476541240324583e-02
4.613249322694057408e-02
4.735542002380405124e-02
4.803074616340813341e-02
4.772408531025423839e-02
4.620560820767010551e-02
4.350234011658386801e-02
3.990077512257587944e-02
3.588781982428804890e-02
3.204387153999031790e-02
2.891684560199576925e-02
2.690232488686005591e-02
2.615141829296968590e-02
2.652960840395313796e-02
2.764517669568620703e-02
2.894401931044794304e-02
2.984214645627051438e-02
2.986006228920698793e-02
2.873267021295005871e-02
2.647671923541413189e-02
2.339787427594373914e-02
2.002649185004305374e-02
1.699622150157263298e-02
1.490149802216467027e-02
1.416804503219915544e-02
1.495639241117201028e-02
1.711566099059375415e-02
2.020768503310809566e-02
2.360304545587850120e-02
2.661927099313475195e-02
2.866034791023770040e-02
2.932983816231332641e-02
2.850435877942719340e-02
2.635529382763042786e-02
2.330804088674744493e-02
1.994388955104041752e-02
1.687003948700356928e-02
1.459177238222638708e-02
1.341106472538041057e-02
1.336488007616818720e-02
1.421873566613047861e-02
1.552592129448732150e-02
1.673750534937801238e-02
1.732932411478720069e-02
1.691681353785295244e-02
1.534202720071224657e-02
1.271987396248807668e-02
9.426318448849783233e-03
6.022257273572960770e-03
3.131884275812994549e-03
1.307657661583246349e-03
9.089667502766530724e-04
2.015764426102644672e-03
4.399575357414729944e-03
7.568243702793343158e-03
1.087713637864757416e-02
1.367349370662158774e-02
1.543346665540381614e-02
1.586459713460749987e-02
1.496237368206080644e-02
1.301256375988485772e-02
1.053228664321767538e-02
8.158354390160313385e-03
6.511152059755228629e-03
6.066854760954496460e-03
7.060773573121838405e-03
9.438743608861517934e-03
1.287227334426927459e-02
1.683786648819097370e-02
2.073507475266917616e-02
2.400730214785948627e-02
2.624277176865910666e-02
2.724738650238877485e-02
2.707790740656470033e-02
2.601962913488627474e-02
2.450748051643021966e-02
2.301280144549521303e-02
2.192824746714383197e-02
2.147522878632804680e-02
2.164821774745613256e-02
2.221010279440267798e-02
2.274793617828961903e-02
2.277805758786284954e-02
2.186981848889101021e-02
1.975513279838101918e-02
1.640503696900985978e-02
1.206405874665126762e-02
7.228930142586788461e-03
2.565276477766381593e-03
-1.218442302362620321e-03
-3.507372575832994055e-03
-3.900786724620129795e-03
-2.296240883658744441e-03
1.081724712860063350e-03
5.721304649871831668e-03
1.092501995956687844e-02
1.594373779591630111e-02
2.010979717909192749e-02
2.294912553035627356e-02
2.425865299841195241e-02
2.413015802226014389e-02
2.290789445503609370e-02
2.109173938490137637e-02
1.921597931953138855e-02
1.773306856858380617e-02
1.692100924984710555e-02
1.682721947503563673e-02
1.726432893761251086e-02
1.786519539728984377e-02
1.818064555788036565e-02
1.779004524949011345e-02
1.640259829387406484e-02
1.393658523515406769e-02
1.055803368927496488e-02
6.656656199256133673e-03
2.759043320352140734e-03
-5.914708412060888090e-04
-2.951742924256217822e-03
-4.068411344843976367e-03
-3.926786000986627265e-03
-2.747464673795922945e-03
-9.269342927324462737e-04
1.062614271770671208e-03
2.782850210573571507e-03
3.918886555122644798e-03
4.338335224668161266e-03
4.116318419542949747e-03
3.514636192700108276e-03
2.910101632208813519e-03
2.688606797314438066e-03
3.136088698768981463e-03
4.355332774434266668e-03
6.222262051932163536e-03
8.388471566443806565e-03
1.033946328559301464e-02
1.150324046210046691e-02
1.137850229010807339e-02
9.647474523966562479e-03
6.253914778826337798e-03
1.437210892821757461e-03
-4.288071466993039794e-03
-1.021247549870769704e-02
-1.555790505146865087e-02
-1.962118649385972621e-02
-2.190560314270069767e-02
-2.221876871089798963e-02
-2.071853432876006110e-02
-1.788827641180598671e-02
-1.443864951825307372e-02
-1.116052680445743170e-02
-8.767800973302819489e-03
-7.761897392703934716e-03
-8.337621216922821640e-03
-1.034732471216027148e-02
-1.333708378637458482e-02
-1.664938593073582093e-02
-1.956401851930946942e-02
-2.144163722268140754e-02
-2.184399172157990357e-02
-2.061567555153121997e-02
-1.791168969686430384e-02
-1.415709794110004381e-02
-9.945930545513450780e-03
-5.910074551458733248e-03
-2.592033076413109878e-03
-3.417363838176882803e-04
7.494026790321053162e-04
8.599435267874880372e-04
3.855513566533643214e-04
-1.645843120603639404e-04
-2.912472911634392909e-04
3.786276548637341815e-04
2.000265750193756277e-03
4.464339603813993057e-03
7.416734385876382410e-03
1.034320911939430251e-02
1.269032363926456998e-02
1.398943240473012571e-02
1.396188468072137590e-02
1.259022495921972157e-02
1.013632628822222666e-02
7.091555232609680903e-03
4.069674001083433378e-03
1.676742083380835819e-03
3.888565071267404815e-04
4.537592534586412044e-04
1.832201142118678686e-03
4.201198176481098570e-03
7.027288427208411466e-03
9.687751067036360492e-03
1.160287802372223821e-02
1.235215961551798872e-02
1.175944044718006502e-02
9.931043898746487464e-03
7.231001536286076233e-03
4.195490014261154393e-03
1.411526894426280189e-03
-6.086297059431607700e-04
-1.535144100988107205e-03
-1.293312935649605340e-03
-7.969726155694200481e-05
1.691574275744745989e-03
3.497174946231429177e-03
4.831752367489797195e-03
5.321214011672686581e-03
4.805376753836775212e-03
3.381620112343780224e-03
1.395861699502596882e-03
-6.288143337069470587e-04
-2.111692596567181588e-03
-2.548260940382604360e-03
-1.626217370446979196e-03
6.951688102457597232e-04
4.157307582801768493e-03
8.241921526141936585e-03
1.227611272742357151e-02
1.557397264551377107e-02
1.757673933798508531e-02
1.796493049385063101e-02
1.672711686556455774e-02
1.416955650218345089e-02
1.085563675649590942e-02
7.485746267874043847e-03
4.749975009878361180e-03
3.188411182717060168e-03
3.082052290521256413e-03
4.393449524274646058e-03
6.777613203950377460e-03
9.666637026861019111e-03
1.240337269007340919e-02
1.438756575803241435e-02
1.520589692165769113e-02
1.472757933553685977e-02
1.314408069817800395e-02
1.093113493961179669e-02
8.736829270199192657e-03
7.231103191032646309e-03
6.958675873352637709e-03
8.223934682027962337e-03
1.102488480333626251e-02
1.505091950302115018e-02
1.975057848972431099e-02
2.445173754331654917e-02
2.849790446837715055e-02
3.137016193058979330e-02
3.278094210479948895e-02
3.272822729053062596e-02
3.149239253140045935e-02
2.956668419377916565e-02
2.753628904562657395e-02
2.593863836294222139e-02
2.513687946710308971e-02
2.522938388816822058e-02
2.601535084643261109e-02
2.703279464495029344e-02
2.766627571867006502e-02
2.729455473990039654e-02
2.543656032562669270e-02
2.186832249977715276e-02
1.669759596011675951e-02
1.037705780849276088e-02
3.639289279607871123e-03
-2.636073780986870722e-03
-7.588020132664205150e-03
-1.053544623213253234e-02
-1.110716009058757003e-02
-9.317277111502092826e-03
-5.563239114631138987e-03
-5.437665911291880228e-04
4.877765730570944071e-03
9.829794738865931317e-03
1.358064313872888243e-02
1.565830029112728200e-02
1.592255545785674353e-02
1.456837520868239748e-02
1.205563854646759733e-02
8.988532892649666456e-03
5.978698951145571330e-03
3.516886993119765128e-03
1.873598449787707921e-03
1.054491197426440496e-03
8.275787501930884603e-04
8.117991134755120656e-04
5.931790410688582687e-04
-1.652165066007598620e-04
-1.635762143859880845e-03
-3.771873935764426689e-03
-6.305446157297706251e-03
-8.804719538553818642e-03
-1.077643057999508498e-02
-1.178298879135063204e-02
-1.154820758261185937e-02
-1.003418214570932047e-02
-7.473368184876406917e-03
-4.338275461993817278e-03
-1.249113927720581392e-03
1.152651758957568863e-03
2.331353539008664509e-03
1.964662354566649310e-03
1.693509356417717115e-05
-3.241220173499406200e-03
-7.280993300150324227e-03
-1.142238876269812374e-02
-1.497030523748844530e-02
-1.734673308873494607e-02
-1.819593450402580762e-02
-1.744494847356028999e-02
-1.530422170179667959e-02
-1.220658553360398114e-02
-8.703490195424138168e-03
-5.347963406854085860e-03
-2.588056913306160337e-03
-6.842632430397429036e-04
3.359117471916827019e-04
6.693541530946926733e-04
6.703424245378733753e-04
7.455452928538138088e-04
1.242248061275528538e-03
2.353090149969821240e-03
4.053661729478505449e-03
6.090758468308463992e-03
8.034056763781875776e-03
9.380661738827331120e-03
9.678098981818828925e-03
8.632339807470461313e-03
6.184840845033644230e-03
2.549852408740908329e-03
-1.801385515770492253e-03
-6.216314676689644117e-03
-9.980939731459166978e-03
-1.245379990416291272e-02
-1.318708891260570761e-02
-1.201561582395624557e-02
-9.095070432696193349e-03
-4.871920294684676904e-03
1.314306278015517186e-05
4.856990637446205461e-03
9.024405661038860035e-03
1.205624451700390391e-02
1.374223694971125204e-02
1.414388093539957827e-02
1.355962086850523440e-02
1.244179180353097158e-02
1.128946721835939922e-02
1.054128877127099261e-02
1.048450868431194047e-02
1.119546886946371118e-02
1.253006831119095679e-02
1.417292545496135446e-02
1.572994833310443000e-02
1.683273475869181968e-02
1.722722379724972094e-02
1.683250576562417972e-02
1.575887985612817524e-02
1.427162299354414049e-02
1.270390077053941066e-02
1.135106800867824450e-02
1.038675790729279638e-02
9.823493422060120342e-03
9.522699434840945290e-03
9.257003349899959460e-03
8.821893913284631003e-03
8.171646878007090067e-03
7.537821595834654290e-03
7.497621794049262427e-03
8.983814978076744284e-03
1.323799554734553414e-02
2.170601035918904784e-02
3.588689740012236673e-02
5.716820449757121364e-02
8.668321042566187740e-02
1.252087777856228379e-01
1.731043572816672871e-01
2.302832050369289785e-01
2.962053302548703360e-01
3.698824006547085097e-01
4.498838453142819382e-01
5.343385096997090855e-01
6.209449579640540229e-01
7.070201156857004454e-01
7.896067141858555960e-01
8.656313384684510837e-01
9.320857147350976035e-01
9.862023687915453252e-01
1.025603316328197678e+00
1.048412690803902869e+00
1.053337273277518138e+00
1.039727525204274805e+00
1.007627736620177794e+00
9.578099150966327135e-01
8.917782332881591945e-01
8.117356150944878834e-01
7.205090860589521418e-01
6.214233421723888151e-01
5.181081245004023339e-01
4.142453882773224905e-01
3.132927644279376311e-01
2.182297927307924879e-01
1.313587659555685294e-01
5.418007341349834194e-02
-1.263661931490399869e-02
-6.917397085541818202e-02
-1.160992240509985257e-01
-1.544492622615557809e-01
-1.854123605536835417e-01
-2.101363062368532542e-01
-2.295846810877217314e-01
-2.444641261502319973e-01
-2.552325943576568279e-01
-2.621733835839756277e-01
-2.655054038273114148e-01
-2.655011964465520680e-01
-2.625870665767554013e-01
-2.573980872134715159e-01
-2.507661459533317427e-01
-2.436406928339830691e-01
-2.369676349084545441e-01
-2.315604600699155136e-01
-2.279868140159183876e-01
-2.264866192259597510e-01
-2.269432837452732277e-01
-2.289257947109736846e-01
-2.317951950580210974e-01
-2.348440170695008100e-01
-2.374348571211242764e-01
-2.391170508158134977e-01
-2.397029972278198751e-01
-2.392815847772267468e-01
-2.381606576877983994e-01
-2.367589485479430211e-01
-2.354836763924686160e-01
-2.346248389418450764e-01
-2.342824712060714298e-01
-2.343376246692582821e-01
-2.344793769110505299e-01
-2.342861687067070986e-01
-2.333363922325531470e-01
-2.313156808427134226e-01
-2.281003563663707434e-01
-2.238077913592292634e-01
-2.187998756138043455e-01
-2.136255592805862691e-01
-2.089112651676033050e-01
-2.052313384669653129e-01
-2.029919527321150385e-01
-2.023485759850155719e-01
-2.031689322180511570e-01
-2.050537672698227731e-01
-2.074167381162435597e-01
-2.096017569916578949e-01
-2.110066717025146921e-01
-2.111905115527933641e-01
-2.099499876845984103e-01
-2.073499349739103270e-01
-2.036944613820011185e-01
-1.994446181722924483e-01
-1.951081506287103695e-01
-1.911292604756334168e-01
-1.877969920338359855e-01
-1.851838687700871344e-01
-1.831305689310493423e-01
-1.812910373495214000e-01
-1.792296993212127432e-01
-1.765406365645340592e-01
-1.729575972921057470e-01
-1.684340865041005497e-01
-1.631792383870281082e-01
-1.576360003683048572e-01
-1.523985098141743821e-01
-1.480894819900139547e-01
-1.452325991465929500e-01
-1.441450034083723575e-01
-1.448620131958379409e-01
-1.471090017754038137e-01
-1.503365436659275800e-01
-1.538180500988959865e-01
-1.567867265546614708e-01
-1.585782962319644551e-01
-1.587524582888904523e-01
-1.571743074377716376e-01
-1.540348555074596837e-01
-1.497966196674007933e-01
-1.450777288051016412e-01
-1.405124820655470341e-01
-1.366246780553661833e-01
-1.337311266687747913e-01
-1.318844438932946228e-01
-1.308684912571507764e-01
-1.302533238509327451e-01
-1.294974941894818099e-01
-1.280719952613396662e-01
-1.255800901652335821e-01
-1.218528387906054195e-01
-1.169993580488859902e-01
-1.113914345936887623e-01
-1.055811218187270722e-01
-1.001769026063725060e-01
-9.571427012622617247e-02
-9.254726179316136170e-02
-9.077583453301879546e-02
-9.022278776177256043e-02
-9.047215183874886268e-02
-9.096405558280580561e-02
-9.112009945737804817e-02
-9.046788904819330623e-02
-8.874225658536555317e-02
-8.594445233602591994e-02
-8.233930680330996121e-02
-7.838475873444943065e-02
-7.461448849050449084e-02
-7.150968830739383442e-02
-6.939090926643082247e-02
-6.834607733660735818e-02
-6.820649969377885757e-02
-6.858446545379921766e-02
-6.896974085655062370e-02
-6.885544397595678989e-02
-6.785633732047230415e-02
-6.579753294719986600e-02
-6.276282751511101654e-02
-5.908872453477458098e-02
-5.529553689404435868e-02
-5.197094192813432600e-02
-4.964067988865471237e-02
-4.865751223508717888e-02
-4.912302137790475198e-02
-5.085168364910559041e-02
-5.339195396309771857e-02
-5.610856240443119758e-02
-5.830686597511021418e-02
-5.936881266557104964e-02
-5.887470144977580838e-02
-5.669239262763420273e-02
-5.301422442757863090e-02
-4.832250784859564580e-02
-4.328583111390331417e-02
-3.861681558348888099e-02
-3.493018715942174807e-02
-3.262605445561206352e-02
-3.181168011656294176e-02
-3.227896776748044594e-02
-3.355115771224463639e-02
-3.498885063812617185e-02
-3.592611103820766288e-02
-3.580719441941877801e-02
-3.430250797702739246e-02
-3.138268014612854984e-02
-2.732690647248231172e-02
-2.265688406096366334e-02
-1.801639052623449019e-02
-1.403228169216577323e-02
-1.118699528847201877e-02
-9.720941693078712781e-03
-9.581709349122878930e-03
-1.043810569866370462e-02
-1.176020422200526466e-02
-1.294055409528833273e-02
-1.342301652485052531e-02
-1.281604448454738698e-02
-1.097464882279352433e-02
-8.030786877424481857e-03
-4.356643275208886383e-03
-4.694614509550230083e-04
3.092532413028496220e-03
5.893785882092923353e-03
7.705488889445721856e-03
8.571401152365007090e-03
8.812675732095320846e-03
8.960590835062180043e-03
9.632666110619083136e-03
1.138741794807084443e-02
1.459209180211756482e-02
1.932658520955424578e-02
2.534352676859958839e-02
3.210120784613816614e-02
3.886549695048939490e-02
4.485235976802419422e-02
4.937606968971512689e-02
5.197756008925023125e-02
5.251519208582186571e-02
5.119715480173982897e-02
4.853832879875432521e-02
4.524904088088218396e-02
4.208835153306225013e-02
3.971811318119402440e-02
3.858175025882684683e-02
3.882596144905784558e-02
4.028643872874568960e-02
4.254610172905058663e-02
4.504589075642044527e-02
4.721308918241511055e-02
4.858091084154839839e-02
4.888595064957509950e-02
4.812915308701878198e-02
4.658027968772500416e-02
4.471671191395278078e-02
4.311250380467292198e-02
4.230888169423809020e-02
4.269313249121677728e-02
4.440620267114051001e-02
4.730347264389875295e-02
5.098920661306603069e-02
5.491721218715187036e-02
5.852255566135175502e-02
6.134786510289421541e-02
6.314196751906377136e-02
6.391542198808970732e-02
6.393738667767556727e-02
6.366827077612374763e-02
6.364350087801823319e-02
6.434034010218830923e-02
6.606120590179510865e-02
6.885435142162489586e-02
7.248495695151865870e-02
7.647020189574618709e-02
8.017698476866222390e-02
8.295481321136657926e-02
8.426811548964710519e-02
8.380370638394299410e-02
8.153917749122953362e-02
7.775798904339027706e-02
7.299992662196143345e-02
6.795308757368502539e-02
6.331565792667927239e-02
5.966211332093303288e-02
5.733748481942598646e-02
5.639577295544642710e-02
5.660068381049408043e-02
5.749562677151712903e-02
5.852219414705037842e-02
5.915087953375383623e-02
5.899584051511261307e-02
5.789908050553101843e-02
5.596915319349089757e-02
5.355647883156073458e-02
5.116603225962679941e-02
4.933358752094047645e-02
4.849799389281263251e-02
4.889492595981994455e-02
5.049042452140636850e-02
5.297039558535569098e-02
5.579669465396861622e-02
5.831957241803191472e-02
5.991471668865758909e-02
6.011156472427778980e-02
5.869164009965890938e-02
5.574259855793802648e-02
5.165228065917344680e-02
4.703471157079493203e-02
4.260349493794686471e-02
3.902694167878674458e-02
3.679671705334066484e-02
3.612913886118393481e-02
3.691700885636065715e-02
3.875193481135950913e-02
4.101843119576774332e-02
4.303322869420715679e-02
4.419246145558173439e-02
4.409702982904231683e-02
4.263764224892676452e-02
4.002224187115423909e-02
3.673101682418984659e-02
3.340652977063991724e-02
3.071155365200368970e-02
2.919132219141847354e-02
2.916465162769279681e-02
3.065894097693855347e-02
3.340594775924494303e-02
3.690683911654683153e-02
4.054725097270420880e-02
4.372724955760196736e-02
4.597900473098012752e-02
4.705643217108992221e-02
4.698273155597672279e-02
4.603907613673448307e-02
4.468920064339633458e-02
4.346076648680492760e-02
4.281823290000098814e-02
4.305291695394544010e-02
4.420757777144360134e-02
4.605682571909611861e-02
4.815791575236042649e-02
4.996044939339275986e-02
5.094110016813927638e-02
5.072718569784637199e-02
4.918705342629006022e-02
4.647665997345314104e-02
4.303032765102716289e-02
3.948782035237458771e-02
3.656864270878474460e-02
3.492230469669755505e-02
3.498887770915039275e-02
3.689892096101218127e-02
4.043516994582610491e-02
4.506897819045266318e-02
5.006364427139856771e-02
5.461621712805812129e-02
5.800483465863490173e-02
5.971749698915587712e-02
5.954477190589892860e-02
5.761596760770122672e-02
5.436332178452264741e-02
5.042059019978036016e-02
4.648412474458370192e-02
4.317060783215511538e-02
4.089616261816261811e-02
3.979604514956956024e-02
3.970935135581458303e-02
4.024115051212793365e-02
4.088072319680966654e-02
4.113555822396578604e-02
4.065081290941077730e-02
3.929846306813441353e-02
3.721955187330157344e-02
3.480174025382316155e-02
3.259283361321458489e-02
3.117599116287761776e-02
3.104004158851209755e-02
3.246897955569093275e-02
3.546813298937444986e-02
3.974678954349749466e-02
4.476985132577995796e-02
4.986735080413215448e-02
5.436862078998435516e-02
5.772682263317770873e-02
5.961593309582659261e-02
5.998984041619676716e-02
5.908697953115450013e-02
5.737157843234602650e-02
5.542721936065259092e-02
5.383187800379368726e-02
5.303929957384179855e-02
5.328645316560627621e-02
5.454673626853503293e-02
5.654478509108120526e-02
5.883184258661446758e-02
6.089725846235157641e-02
6.228337081677450676e-02
6.268180482084768912e-02
6.199890792473828488e-02
6.037674379926622620e-02
5.815739834190841728e-02
5.579500012010674831e-02
5.374188167226846141e-02
5.234177029152937977e-02
5.175159996857100347e-02
5.190296647808136793e-02
5.251441475195825492e-02
5.316091510075002247e-02
5.338385173995338628e-02
5.280607976142961263e-02
5.122540132592391660e-02
4.867535154241343226e-02
4.544131523263822414e-02
4.201982974426160533e-02
3.902390988053604931e-02
3.705588653773794761e-02
3.657985021914034185e-02
3.782057301319097925e-02
4.070339340361024683e-02
4.484881330760222967e-02
4.963410099104072909e-02
5.431232704004642503e-02
5.815499462587266771e-02
6.058323817669161032e-02
6.126795148256138079e-02
6.018731858303361798e-02
5.762689859357966737e-02
5.411335248346610394e-02
5.029555892499565362e-02
4.680580105046223266e-02
4.413243361105119444e-02
4.252375879420213639e-02
4.193989926157734582e-02
4.207022829298276423e-02
4.241811036899953424e-02
4.242702033690784469e-02
4.161003454253200950e-02
3.965707387769114994e-02
3.650845209112048295e-02
3.238183674531226047e-02
2.773784564618481802e-02
2.318762622385759156e-02
1.937011193891219688e-02
1.682891170058545965e-02
1.590502517139612271e-02
1.665962794881933190e-02
1.884728554051645633e-02
2.194929125216297378e-02
2.525512948479248510e-02
2.796885213755197913e-02
2.932018506191327520e-02
2.866818061962897457e-02
2.558408704902043543e-02
1.989348927991933108e-02
1.166602836549655853e-02
1.160866908553889222e-03
-1.125248984930336295e-02
-2.517876268066390755e-02
-4.026951848608617546e-02
-5.626477628585240670e-02
-7.298958305405266189e-02
-9.031057142999153464e-02
-1.080749660787668626e-01
-1.260551400226448404e-01
-1.439107851683594230e-01
-1.611755480310007593e-01
-1.772804517867284657e-01
-1.916220054534699679e-01
-2.036611141402611125e-01
-2.130234819287625259e-01
-2.195777952396965327e-01
-2.234816373470420448e-01
-2.251867044833551768e-01
-2.253892351857293419e-01
-2.249239522426605409e-01
-2.246263704628390090e-01
-2.251983179983184091e-01
-2.270989507702300680e-01
-2.304736575510556162e-01
-2.351368330208358504e-01
-2.406204018211200724e-01
-2.462801209568291350e-01
-2.514334403336738188e-01
-2.554976893287927431e-01
-2.581044259572526367e-01
-2.591713199983936566e-01
-2.589112122592959753e-01
-2.577705509371168158e-01
